HbO,1,1	HbR,1,1	HbT,1,1	HbO,1,2	HbR,1,2	HbT,1,2	HbO,1,3	HbR,1,3	HbT,1,3	HbO,2,2	HbR,2,2	HbT,2,2	HbO,2,4	HbR,2,4	HbT,2,4	HbO,3,1	HbR,3,1	HbT,3,1	HbO,3,3	HbR,3,3	HbT,3,3	HbO,4,2	HbR,4,2	HbT,4,2	HbO,4,3	HbR,4,3	HbT,4,3	HbO,4,4	HbR,4,4	HbT,4,4	HbO,5,5	HbR,5,5	HbT,5,5	HbO,5,6	HbR,5,6	HbT,5,6	HbO,5,7	HbR,5,7	HbT,5,7	HbO,6,6	HbR,6,6	HbT,6,6	HbO,6,8	HbR,6,8	HbT,6,8	HbO,7,5	HbR,7,5	HbT,7,5	HbO,7,7	HbR,7,7	HbT,7,7	HbO,8,6	HbR,8,6	HbT,8,6	HbO,8,7	HbR,8,7	HbT,8,7	HbO,8,8	HbR,8,8	HbT,8,8	
8.7355e-07	5.03e-07	1.3765e-06	6.487e-07	-4.0706e-08	6.0799e-07	1.249e-06	3.5437e-07	1.6034e-06	9.837e-07	4.6359e-07	1.4473e-06	-5.9824e-08	-1.2819e-07	-1.8802e-07	-8.684e-08	1.3735e-07	5.0509e-08	2.74e-07	3.0609e-07	5.8009e-07	-4.8543e-07	-1.8294e-07	-6.6836e-07	1.3321e-06	3.5544e-07	1.6875e-06	5.7302e-07	1.2391e-07	6.9693e-07	5.0538e-07	7.7371e-08	5.8275e-07	4.7314e-07	9.3052e-08	5.6619e-07	3.8554e-07	7.6981e-08	4.6252e-07	9.4438e-07	1.7065e-07	1.115e-06	7.7543e-08	-2.5274e-08	5.2269e-08	6.9498e-07	1.2596e-07	8.2094e-07	2.6958e-07	1.9102e-07	4.6059e-07	4.2383e-07	3.5709e-07	7.8092e-07	2.7855e-07	2.1763e-07	4.9618e-07	2.0427e-07	1.225e-07	3.2677e-07
8.5754e-07	4.9419e-07	1.3517e-06	6.3609e-07	-3.9576e-08	5.9651e-07	1.2255e-06	3.484e-07	1.5739e-06	9.6467e-07	4.5478e-07	1.4194e-06	-5.8439e-08	-1.258e-07	-1.8424e-07	-8.5339e-08	1.3511e-07	4.9774e-08	2.6855e-07	3.0029e-07	5.6885e-07	-4.7686e-07	-1.7935e-07	-6.5621e-07	1.3065e-06	3.4876e-07	1.6553e-06	5.6191e-07	1.2159e-07	6.835e-07	4.9587e-07	7.6425e-08	5.723e-07	4.6391e-07	9.1644e-08	5.5555e-07	3.7785e-07	7.6141e-08	4.5399e-07	9.2671e-07	1.6757e-07	1.0943e-06	7.5947e-08	-2.4845e-08	5.1102e-08	6.8136e-07	1.2384e-07	8.052e-07	2.6366e-07	1.8773e-07	4.5139e-07	4.1492e-07	3.5085e-07	7.6576e-07	2.7232e-07	2.139e-07	4.8622e-07	1.9976e-07	1.2054e-07	3.203e-07
8.4145e-07	4.8533e-07	1.3268e-06	6.2344e-07	-3.845e-08	5.8499e-07	1.2018e-06	3.4238e-07	1.5442e-06	9.4558e-07	4.4593e-07	1.3915e-06	-5.7056e-08	-1.234e-07	-1.8045e-07	-8.3822e-08	1.3286e-07	4.9034e-08	2.6309e-07	2.9448e-07	5.5756e-07	-4.6825e-07	-1.7575e-07	-6.44e-07	1.2809e-06	3.4205e-07	1.623e-06	5.5076e-07	1.1927e-07	6.7003e-07	4.8632e-07	7.5458e-08	5.6178e-07	4.5464e-07	9.0218e-08	5.4486e-07	3.7014e-07	7.5278e-08	4.4541e-07	9.0895e-07	1.6447e-07	1.0734e-06	7.4346e-08	-2.4413e-08	4.9933e-08	6.6771e-07	1.2169e-07	7.894e-07	2.5775e-07	1.8441e-07	4.4216e-07	4.0599e-07	3.4456e-07	7.5055e-07	2.661e-07	2.1014e-07	4.7623e-07	1.9525e-07	1.1856e-07	3.1381e-07
8.2529e-07	4.7641e-07	1.3017e-06	6.1076e-07	-3.733e-08	5.7343e-07	1.1781e-06	3.3631e-07	1.5144e-06	9.2642e-07	4.3705e-07	1.3635e-06	-5.5675e-08	-1.2098e-07	-1.7666e-07	-8.2289e-08	1.3058e-07	4.8286e-08	2.5761e-07	2.8863e-07	5.4624e-07	-4.5959e-07	-1.7214e-07	-6.3173e-07	1.2552e-06	3.3532e-07	1.5905e-06	5.3959e-07	1.1694e-07	6.5653e-07	4.7673e-07	7.447e-08	5.512e-07	4.4535e-07	8.8775e-08	5.3412e-07	3.624e-07	7.4391e-08	4.3679e-07	8.9111e-07	1.6136e-07	1.0525e-06	7.2741e-08	-2.398e-08	4.8761e-08	6.5401e-07	1.1954e-07	7.7355e-07	2.5184e-07	1.8107e-07	4.3291e-07	3.9705e-07	3.3823e-07	7.3528e-07	2.5988e-07	2.0635e-07	4.6623e-07	1.9075e-07	1.1656e-07	3.0731e-07
8.0905e-07	4.6744e-07	1.2765e-06	5.9803e-07	-3.6215e-08	5.6182e-07	1.1542e-06	3.302e-07	1.4844e-06	9.072e-07	4.2813e-07	1.3353e-06	-5.4297e-08	-1.1856e-07	-1.7286e-07	-8.0741e-08	1.2827e-07	4.7532e-08	2.5212e-07	2.8276e-07	5.3488e-07	-4.5088e-07	-1.6852e-07	-6.194e-07	1.2294e-06	3.2856e-07	1.5579e-06	5.2839e-07	1.146e-07	6.4299e-07	4.671e-07	7.3461e-08	5.4057e-07	4.3603e-07	8.7314e-08	5.2334e-07	3.5464e-07	7.3481e-08	4.2813e-07	8.7319e-07	1.5823e-07	1.0314e-06	7.1133e-08	-2.3545e-08	4.7588e-08	6.4029e-07	1.1736e-07	7.5764e-07	2.4594e-07	1.7771e-07	4.2364e-07	3.8809e-07	3.3186e-07	7.1996e-07	2.5366e-07	2.0254e-07	4.562e-07	1.8625e-07	1.1454e-07	3.0079e-07
7.9274e-07	4.5842e-07	1.2512e-06	5.8527e-07	-3.5106e-08	5.5016e-07	1.1303e-06	3.2405e-07	1.4543e-06	8.8793e-07	4.1918e-07	1.3071e-06	-5.2921e-08	-1.1613e-07	-1.6905e-07	-7.9177e-08	1.2595e-07	4.6772e-08	2.4661e-07	2.7687e-07	5.2348e-07	-4.4212e-07	-1.6489e-07	-6.0701e-07	1.2035e-06	3.2179e-07	1.5253e-06	5.1716e-07	1.1225e-07	6.2942e-07	4.5744e-07	7.2432e-08	5.2987e-07	4.2668e-07	8.5836e-08	5.1251e-07	3.4687e-07	7.2549e-08	4.1942e-07	8.5518e-07	1.5508e-07	1.0103e-06	6.9521e-08	-2.3107e-08	4.6414e-08	6.2652e-07	1.1516e-07	7.4169e-07	2.4004e-07	1.7432e-07	4.1436e-07	3.7913e-07	3.2545e-07	7.0458e-07	2.4745e-07	1.987e-07	4.4615e-07	1.8176e-07	1.1249e-07	2.9425e-07
7.7636e-07	4.4934e-07	1.2257e-06	5.7247e-07	-3.4003e-08	5.3847e-07	1.1062e-06	3.1786e-07	1.4241e-06	8.6859e-07	4.102e-07	1.2788e-06	-5.1547e-08	-1.1369e-07	-1.6523e-07	-7.7598e-08	1.236e-07	4.6004e-08	2.4109e-07	2.7095e-07	5.1204e-07	-4.3331e-07	-1.6125e-07	-5.9456e-07	1.1775e-06	3.1498e-07	1.4925e-06	5.0591e-07	1.099e-07	6.1581e-07	4.4773e-07	7.1382e-08	5.1911e-07	4.173e-07	8.4341e-08	5.0164e-07	3.3907e-07	7.1593e-08	4.1066e-07	8.371e-07	1.5191e-07	9.8901e-07	6.7906e-08	-2.2667e-08	4.5239e-08	6.1272e-07	1.1295e-07	7.2568e-07	2.3414e-07	1.7091e-07	4.0505e-07	3.7016e-07	3.19e-07	6.8916e-07	2.4125e-07	1.9483e-07	4.3609e-07	1.7727e-07	1.1043e-07	2.877e-07
7.5991e-07	4.4021e-07	1.2001e-06	5.5964e-07	-3.2906e-08	5.2673e-07	1.0821e-06	3.1162e-07	1.3937e-06	8.4919e-07	4.0119e-07	1.2504e-06	-5.0177e-08	-1.1123e-07	-1.6141e-07	-7.6005e-08	1.2123e-07	4.5229e-08	2.3556e-07	2.6501e-07	5.0057e-07	-4.2445e-07	-1.576e-07	-5.8206e-07	1.1515e-06	3.0816e-07	1.4596e-06	4.9463e-07	1.0754e-07	6.0217e-07	4.3799e-07	7.0312e-08	5.083e-07	4.079e-07	8.2828e-08	4.9073e-07	3.3125e-07	7.0614e-08	4.0187e-07	8.1893e-07	1.4873e-07	9.6766e-07	6.6288e-08	-2.2225e-08	4.4063e-08	5.9889e-07	1.1072e-07	7.0961e-07	2.2825e-07	1.6748e-07	3.9573e-07	3.6117e-07	3.1251e-07	6.7368e-07	2.3506e-07	1.9094e-07	4.26e-07	1.7279e-07	1.0835e-07	2.8114e-07
7.4338e-07	4.3103e-07	1.1744e-06	5.4677e-07	-3.1815e-08	5.1495e-07	1.0579e-06	3.0533e-07	1.3632e-06	8.2974e-07	3.9215e-07	1.2219e-06	-4.8809e-08	-1.0877e-07	-1.5758e-07	-7.4398e-08	1.1884e-07	4.4446e-08	2.3001e-07	2.5905e-07	4.8906e-07	-4.1555e-07	-1.5395e-07	-5.695e-07	1.1253e-06	3.0131e-07	1.4266e-06	4.8333e-07	1.0517e-07	5.885e-07	4.2821e-07	6.922e-08	4.9743e-07	3.9847e-07	8.1299e-08	4.7977e-07	3.2342e-07	6.9612e-08	3.9303e-07	8.0069e-07	1.4553e-07	9.4623e-07	6.4667e-08	-2.1781e-08	4.2886e-08	5.8503e-07	1.0848e-07	6.9351e-07	2.2236e-07	1.6402e-07	3.8639e-07	3.5218e-07	3.0598e-07	6.5816e-07	2.2887e-07	1.8702e-07	4.159e-07	1.6832e-07	1.0624e-07	2.7456e-07
7.2678e-07	4.218e-07	1.1486e-06	5.3386e-07	-3.073e-08	5.0313e-07	1.0336e-06	2.9901e-07	1.3326e-06	8.1024e-07	3.8308e-07	1.1933e-06	-4.7444e-08	-1.063e-07	-1.5374e-07	-7.2778e-08	1.1643e-07	4.3657e-08	2.2445e-07	2.5307e-07	4.7752e-07	-4.066e-07	-1.5028e-07	-5.5688e-07	1.0991e-06	2.9444e-07	1.3935e-06	4.72e-07	1.0279e-07	5.748e-07	4.1839e-07	6.8108e-08	4.865e-07	3.8902e-07	7.9753e-08	4.6877e-07	3.1557e-07	6.8587e-08	3.8416e-07	7.8238e-07	1.4232e-07	9.247e-07	6.3043e-08	-2.1334e-08	4.1709e-08	5.7113e-07	1.0621e-07	6.7735e-07	2.1649e-07	1.6054e-07	3.7703e-07	3.4318e-07	2.9941e-07	6.426e-07	2.227e-07	1.8308e-07	4.0578e-07	1.6386e-07	1.0412e-07	2.6797e-07
7.1012e-07	4.1251e-07	1.1226e-06	5.2093e-07	-2.9652e-08	4.9128e-07	1.0092e-06	2.9264e-07	1.3019e-06	7.9068e-07	3.7399e-07	1.1647e-06	-4.6082e-08	-1.0382e-07	-1.499e-07	-7.1144e-08	1.14e-07	4.286e-08	2.1888e-07	2.4706e-07	4.6595e-07	-3.976e-07	-1.4661e-07	-5.4421e-07	1.0728e-06	2.8755e-07	1.3603e-06	4.6065e-07	1.0041e-07	5.6106e-07	4.0854e-07	6.6976e-08	4.7552e-07	3.7954e-07	7.819e-08	4.5773e-07	3.077e-07	6.7539e-08	3.7524e-07	7.6399e-07	1.3909e-07	9.0308e-07	6.1418e-08	-2.0885e-08	4.0533e-08	5.5721e-07	1.0393e-07	6.6114e-07	2.1061e-07	1.5704e-07	3.6766e-07	3.3418e-07	2.9281e-07	6.2698e-07	2.1653e-07	1.7911e-07	3.9564e-07	1.594e-07	1.0197e-07	2.6137e-07
6.9339e-07	4.0318e-07	1.0966e-06	5.0796e-07	-2.858e-08	4.7938e-07	9.8477e-07	2.8623e-07	1.271e-06	7.7107e-07	3.6486e-07	1.1359e-06	-4.4724e-08	-1.0133e-07	-1.4605e-07	-6.9497e-08	1.1155e-07	4.2055e-08	2.133e-07	2.4104e-07	4.5434e-07	-3.8856e-07	-1.4293e-07	-5.3149e-07	1.0464e-06	2.8064e-07	1.3271e-06	4.4928e-07	9.802e-08	5.473e-07	3.9866e-07	6.5823e-08	4.6448e-07	3.7004e-07	7.661e-08	4.4665e-07	2.9982e-07	6.6467e-08	3.6629e-07	7.4554e-07	1.3584e-07	8.8138e-07	5.979e-08	-2.0434e-08	3.9356e-08	5.4326e-07	1.0164e-07	6.4489e-07	2.0475e-07	1.5352e-07	3.5827e-07	3.2517e-07	2.8616e-07	6.1133e-07	2.1037e-07	1.7512e-07	3.8549e-07	1.5494e-07	9.9809e-08	2.5475e-07
6.7659e-07	3.9379e-07	1.0704e-06	4.9497e-07	-2.7516e-08	4.6745e-07	9.6022e-07	2.7978e-07	1.24e-06	7.5141e-07	3.5571e-07	1.1071e-06	-4.3369e-08	-9.8831e-08	-1.422e-07	-6.7837e-08	1.0908e-07	4.1242e-08	2.0771e-07	2.3499e-07	4.4271e-07	-3.7947e-07	-1.3924e-07	-5.1871e-07	1.02e-06	2.737e-07	1.2937e-06	4.3788e-07	9.5621e-08	5.335e-07	3.8874e-07	6.465e-08	4.5339e-07	3.6052e-07	7.5014e-08	4.3553e-07	2.9192e-07	6.5373e-08	3.573e-07	7.2701e-07	1.3258e-07	8.5959e-07	5.816e-08	-1.998e-08	3.818e-08	5.2928e-07	9.9324e-08	6.286e-07	1.9889e-07	1.4998e-07	3.4887e-07	3.1616e-07	2.7948e-07	5.9563e-07	2.0422e-07	1.711e-07	3.7532e-07	1.505e-07	9.7626e-08	2.4813e-07
6.5972e-07	3.8436e-07	1.0441e-06	4.8194e-07	-2.6459e-08	4.5548e-07	9.356e-07	2.7329e-07	1.2089e-06	7.3171e-07	3.4653e-07	1.0782e-06	-4.2017e-08	-9.6324e-08	-1.3834e-07	-6.6165e-08	1.0659e-07	4.0422e-08	2.0211e-07	2.2893e-07	4.3104e-07	-3.7034e-07	-1.3554e-07	-5.0588e-07	9.9346e-07	2.6675e-07	1.2602e-06	4.2646e-07	9.3216e-08	5.1968e-07	3.7879e-07	6.3456e-08	4.4224e-07	3.5097e-07	7.3402e-08	4.2437e-07	2.8401e-07	6.4256e-08	3.4827e-07	7.0842e-07	1.293e-07	8.3772e-07	5.6529e-08	-1.9524e-08	3.7005e-08	5.1527e-07	9.6995e-08	6.1226e-07	1.9304e-07	1.4641e-07	3.3946e-07	3.0714e-07	2.7276e-07	5.799e-07	1.9808e-07	1.6706e-07	3.6514e-07	1.4606e-07	9.5424e-08	2.4149e-07
6.4279e-07	3.7487e-07	1.0177e-06	4.6888e-07	-2.5408e-08	4.4348e-07	9.1089e-07	2.6675e-07	1.1776e-06	7.1195e-07	3.3732e-07	1.0493e-06	-4.067e-08	-9.3808e-08	-1.3448e-07	-6.4481e-08	1.0407e-07	3.9593e-08	1.965e-07	2.2285e-07	4.1935e-07	-3.6116e-07	-1.3184e-07	-4.93e-07	9.6687e-07	2.5977e-07	1.2266e-06	4.1502e-07	9.0803e-08	5.0582e-07	3.688e-07	6.2242e-08	4.3104e-07	3.4141e-07	7.1773e-08	4.1318e-07	2.7609e-07	6.3116e-08	3.392e-07	6.8976e-07	1.2601e-07	8.1577e-07	5.4896e-08	-1.9065e-08	3.5832e-08	5.0124e-07	9.4651e-08	5.9589e-07	1.872e-07	1.4283e-07	3.3003e-07	2.9813e-07	2.66e-07	5.6413e-07	1.9196e-07	1.6299e-07	3.5494e-07	1.4164e-07	9.3203e-08	2.3484e-07
6.258e-07	3.6534e-07	9.9113e-07	4.558e-07	-2.4366e-08	4.3144e-07	8.8612e-07	2.6018e-07	1.1463e-06	6.9215e-07	3.2809e-07	1.0202e-06	-3.9326e-08	-9.1284e-08	-1.3061e-07	-6.2785e-08	1.0154e-07	3.8757e-08	1.9088e-07	2.1674e-07	4.0763e-07	-3.5194e-07	-1.2813e-07	-4.8006e-07	9.4022e-07	2.5278e-07	1.193e-06	4.0356e-07	8.8384e-08	4.9194e-07	3.5879e-07	6.1008e-08	4.1979e-07	3.3182e-07	7.0128e-08	4.0195e-07	2.6815e-07	6.1953e-08	3.301e-07	6.7104e-07	1.227e-07	7.9374e-07	5.3263e-08	-1.8604e-08	3.4659e-08	4.8718e-07	9.229e-08	5.7947e-07	1.8137e-07	1.3922e-07	3.2059e-07	2.8911e-07	2.5921e-07	5.4831e-07	1.8584e-07	1.589e-07	3.4474e-07	1.3722e-07	9.0963e-08	2.2818e-07
6.0874e-07	3.5575e-07	9.6449e-07	4.4269e-07	-2.3331e-08	4.1936e-07	8.6127e-07	2.5356e-07	1.1148e-06	6.7231e-07	3.1884e-07	9.9115e-07	-3.7986e-08	-8.8752e-08	-1.2674e-07	-6.1079e-08	9.899e-08	3.7912e-08	1.8526e-07	2.1062e-07	3.9588e-07	-3.4267e-07	-1.2441e-07	-4.6708e-07	9.1351e-07	2.4576e-07	1.1593e-06	3.9208e-07	8.5957e-08	4.7803e-07	3.4874e-07	5.9753e-08	4.0849e-07	3.2222e-07	6.8467e-08	3.9069e-07	2.602e-07	6.0767e-08	3.2097e-07	6.5225e-07	1.1938e-07	7.7163e-07	5.1628e-08	-1.814e-08	3.3488e-08	4.731e-07	8.9915e-08	5.6301e-07	1.7555e-07	1.3559e-07	3.1114e-07	2.8009e-07	2.5238e-07	5.3247e-07	1.7974e-07	1.5478e-07	3.3452e-07	1.3281e-07	8.8705e-08	2.2151e-07
5.9162e-07	3.4612e-07	9.3774e-07	4.2956e-07	-2.2304e-08	4.0726e-07	8.3635e-07	2.4691e-07	1.0833e-06	6.5243e-07	3.0956e-07	9.6199e-07	-3.6651e-08	-8.6212e-08	-1.2286e-07	-5.9361e-08	9.642e-08	3.7059e-08	1.7962e-07	2.0449e-07	3.8411e-07	-3.3336e-07	-1.2069e-07	-4.5405e-07	8.8673e-07	2.3873e-07	1.1255e-06	3.8057e-07	8.3524e-08	4.641e-07	3.3867e-07	5.8479e-08	3.9714e-07	3.126e-07	6.679e-08	3.7939e-07	2.5224e-07	5.9558e-08	3.118e-07	6.3341e-07	1.1605e-07	7.4945e-07	4.9993e-08	-1.7674e-08	3.2319e-08	4.5899e-07	8.7524e-08	5.4651e-07	1.6974e-07	1.3195e-07	3.0169e-07	2.7108e-07	2.4551e-07	5.1659e-07	1.7365e-07	1.5064e-07	3.2429e-07	1.2841e-07	8.6429e-08	2.1484e-07
5.7444e-07	3.3645e-07	9.1088e-07	4.164e-07	-2.1284e-08	3.9512e-07	8.1136e-07	2.4021e-07	1.0516e-06	6.3251e-07	3.0026e-07	9.3276e-07	-3.532e-08	-8.3664e-08	-1.1898e-07	-5.7633e-08	9.383e-08	3.6197e-08	1.7398e-07	1.9833e-07	3.7231e-07	-3.2401e-07	-1.1696e-07	-4.4096e-07	8.5989e-07	2.3167e-07	1.0916e-06	3.6905e-07	8.1084e-08	4.5014e-07	3.2856e-07	5.7184e-08	3.8575e-07	3.0296e-07	6.5097e-08	3.6806e-07	2.4427e-07	5.8326e-08	3.026e-07	6.145e-07	1.127e-07	7.272e-07	4.8357e-08	-1.7205e-08	3.1152e-08	4.4486e-07	8.5118e-08	5.2998e-07	1.6394e-07	1.2828e-07	2.9222e-07	2.6206e-07	2.3861e-07	5.0068e-07	1.6758e-07	1.4648e-07	3.1406e-07	1.2402e-07	8.4134e-08	2.0815e-07
5.572e-07	3.2672e-07	8.8392e-07	4.0322e-07	-2.0274e-08	3.8295e-07	7.863e-07	2.3348e-07	1.0198e-06	6.1254e-07	2.9093e-07	9.0348e-07	-3.3993e-08	-8.1108e-08	-1.151e-07	-5.5894e-08	9.1221e-08	3.5327e-08	1.6833e-07	1.9216e-07	3.605e-07	-3.1461e-07	-1.1322e-07	-4.2783e-07	8.33e-07	2.246e-07	1.0576e-06	3.5751e-07	7.8638e-08	4.3615e-07	3.1843e-07	5.5869e-08	3.743e-07	2.933e-07	6.3388e-08	3.5669e-07	2.363e-07	5.7071e-08	2.9337e-07	5.9554e-07	1.0934e-07	7.0488e-07	4.6721e-08	-1.6734e-08	2.9987e-08	4.3072e-07	8.2697e-08	5.1341e-07	1.5815e-07	1.2459e-07	2.8274e-07	2.5305e-07	2.3168e-07	4.8474e-07	1.6152e-07	1.4229e-07	3.0381e-07	1.1963e-07	8.1822e-08	2.0146e-07
5.399e-07	3.1695e-07	8.5685e-07	3.9002e-07	-1.9271e-08	3.7074e-07	7.6118e-07	2.267e-07	9.8788e-07	5.9255e-07	2.8159e-07	8.7414e-07	-3.267e-08	-7.8545e-08	-1.1122e-07	-5.4146e-08	8.8594e-08	3.4448e-08	1.6268e-07	1.8598e-07	3.4866e-07	-3.0517e-07	-1.0948e-07	-4.1465e-07	8.0605e-07	2.1751e-07	1.0236e-06	3.4596e-07	7.6185e-08	4.2214e-07	3.0827e-07	5.4534e-08	3.6281e-07	2.8363e-07	6.1664e-08	3.453e-07	2.2831e-07	5.5794e-08	2.841e-07	5.7653e-07	1.0596e-07	6.8249e-07	4.5085e-08	-1.626e-08	2.8825e-08	4.1655e-07	8.0262e-08	4.9681e-07	1.5237e-07	1.2089e-07	2.7326e-07	2.4405e-07	2.2471e-07	4.6876e-07	1.5547e-07	1.3809e-07	2.9356e-07	1.1526e-07	7.9492e-08	1.9476e-07
5.2254e-07	3.0714e-07	8.2968e-07	3.7679e-07	-1.8277e-08	3.5851e-07	7.3599e-07	2.1989e-07	9.5588e-07	5.7251e-07	2.7222e-07	8.4474e-07	-3.1353e-08	-7.5974e-08	-1.0733e-07	-5.2389e-08	8.5949e-08	3.3561e-08	1.5702e-07	1.7978e-07	3.368e-07	-2.9569e-07	-1.0574e-07	-4.0143e-07	7.7904e-07	2.104e-07	9.8944e-07	3.3438e-07	7.3726e-08	4.0811e-07	2.9809e-07	5.318e-08	3.5126e-07	2.7395e-07	5.9924e-08	3.3387e-07	2.2032e-07	5.4494e-08	2.7481e-07	5.5746e-07	1.0257e-07	6.6003e-07	4.3449e-08	-1.5783e-08	2.7666e-08	4.0236e-07	7.7812e-08	4.8018e-07	1.4661e-07	1.1716e-07	2.6377e-07	2.3505e-07	2.1771e-07	4.5277e-07	1.4945e-07	1.3385e-07	2.833e-07	1.109e-07	7.7145e-08	1.8805e-07
5.0513e-07	2.9728e-07	8.0241e-07	3.6355e-07	-1.7292e-08	3.4625e-07	7.1075e-07	2.1304e-07	9.2378e-07	5.5245e-07	2.6284e-07	8.1529e-07	-3.004e-08	-7.3397e-08	-1.0344e-07	-5.0622e-08	8.3286e-08	3.2664e-08	1.5136e-07	1.7356e-07	3.2492e-07	-2.8617e-07	-1.0199e-07	-3.8816e-07	7.5198e-07	2.0328e-07	9.5526e-07	3.2279e-07	7.126e-08	3.9405e-07	2.8787e-07	5.1805e-08	3.3968e-07	2.6425e-07	5.8169e-08	3.2242e-07	2.1232e-07	5.3171e-08	2.6549e-07	5.3834e-07	9.9173e-08	6.3751e-07	4.1814e-08	-1.5304e-08	2.651e-08	3.8816e-07	7.5349e-08	4.6351e-07	1.4086e-07	1.1341e-07	2.5427e-07	2.2606e-07	2.1068e-07	4.3674e-07	1.4343e-07	1.296e-07	2.7304e-07	1.0656e-07	7.478e-08	1.8134e-07
4.8766e-07	2.8737e-07	7.7503e-07	3.5028e-07	-1.6316e-08	3.3397e-07	6.8544e-07	2.0615e-07	8.9159e-07	5.3235e-07	2.5343e-07	7.8578e-07	-2.8732e-08	-7.0813e-08	-9.9545e-08	-4.8847e-08	8.0606e-08	3.1759e-08	1.4569e-07	1.6733e-07	3.1302e-07	-2.7661e-07	-9.8232e-08	-3.7484e-07	7.2488e-07	1.9613e-07	9.2101e-07	3.1119e-07	6.8788e-08	3.7997e-07	2.7764e-07	5.0411e-08	3.2805e-07	2.5454e-07	5.6399e-08	3.1094e-07	2.0431e-07	5.1826e-08	2.5614e-07	5.1917e-07	9.576e-08	6.1493e-07	4.0179e-08	-1.4822e-08	2.5357e-08	3.7394e-07	7.2871e-08	4.4681e-07	1.3512e-07	1.0965e-07	2.4477e-07	2.1707e-07	2.0362e-07	4.2069e-07	1.3744e-07	1.2533e-07	2.6277e-07	1.0222e-07	7.2399e-08	1.7462e-07
4.7014e-07	2.7742e-07	7.4756e-07	3.37e-07	-1.5349e-08	3.2165e-07	6.6008e-07	1.9922e-07	8.593e-07	5.1222e-07	2.4401e-07	7.5623e-07	-2.743e-08	-6.8222e-08	-9.5651e-08	-4.7063e-08	7.7907e-08	3.0844e-08	1.4001e-07	1.6109e-07	3.011e-07	-2.6701e-07	-9.4474e-08	-3.6148e-07	6.9772e-07	1.8898e-07	8.867e-07	2.9957e-07	6.631e-08	3.6587e-07	2.6738e-07	4.8997e-08	3.1637e-07	2.4481e-07	5.4614e-08	2.9943e-07	1.963e-07	5.0458e-08	2.4676e-07	4.9996e-07	9.2334e-08	5.9229e-07	3.8545e-08	-1.4338e-08	2.4207e-08	3.5971e-07	7.038e-08	4.3009e-07	1.2939e-07	1.0587e-07	2.3526e-07	2.081e-07	1.9652e-07	4.0462e-07	1.3146e-07	1.2103e-07	2.5249e-07	9.7891e-08	7.0001e-08	1.6789e-07
4.5256e-07	2.6743e-07	7.1999e-07	3.237e-07	-1.4391e-08	3.0931e-07	6.3466e-07	1.9225e-07	8.2691e-07	4.9206e-07	2.3457e-07	7.2663e-07	-2.6132e-08	-6.5624e-08	-9.1756e-08	-4.5271e-08	7.5192e-08	2.9921e-08	1.3434e-07	1.5483e-07	2.8917e-07	-2.5737e-07	-9.0712e-08	-3.4808e-07	6.7052e-07	1.818e-07	8.5232e-07	2.8793e-07	6.3826e-08	3.5175e-07	2.5709e-07	4.7564e-08	3.0466e-07	2.3508e-07	5.2814e-08	2.8789e-07	1.8829e-07	4.9067e-08	2.3735e-07	4.807e-07	8.8897e-08	5.6959e-07	3.6912e-08	-1.3851e-08	2.3062e-08	3.4546e-07	6.7876e-08	4.1333e-07	1.2368e-07	1.0207e-07	2.2575e-07	1.9913e-07	1.894e-07	3.8853e-07	1.255e-07	1.1672e-07	2.4222e-07	9.3577e-08	6.7586e-08	1.6116e-07
4.3494e-07	2.574e-07	6.9233e-07	3.1039e-07	-1.3443e-08	2.9694e-07	6.0919e-07	1.8525e-07	7.9444e-07	4.7188e-07	2.2511e-07	6.9699e-07	-2.484e-08	-6.302e-08	-8.7861e-08	-4.3472e-08	7.246e-08	2.8988e-08	1.2866e-07	1.4857e-07	2.7723e-07	-2.4769e-07	-8.6946e-08	-3.3464e-07	6.4328e-07	1.7461e-07	8.1789e-07	2.7628e-07	6.1336e-08	3.3761e-07	2.4679e-07	4.6112e-08	2.929e-07	2.2533e-07	5.0999e-08	2.7633e-07	1.8027e-07	4.7654e-08	2.2792e-07	4.6139e-07	8.5449e-08	5.4684e-07	3.5281e-08	-1.3361e-08	2.192e-08	3.3119e-07	6.5358e-08	3.9655e-07	1.1799e-07	9.8252e-08	2.1624e-07	1.9018e-07	1.8224e-07	3.7242e-07	1.1956e-07	1.1238e-07	2.3194e-07	8.9275e-08	6.5155e-08	1.5443e-07
4.1726e-07	2.4732e-07	6.6458e-07	2.9706e-07	-1.2504e-08	2.8455e-07	5.8367e-07	1.7821e-07	7.6188e-07	4.5167e-07	2.1564e-07	6.6731e-07	-2.3554e-08	-6.041e-08	-8.3964e-08	-4.1665e-08	6.9711e-08	2.8046e-08	1.2298e-07	1.4229e-07	2.6527e-07	-2.3797e-07	-8.3177e-08	-3.2115e-07	6.16e-07	1.6741e-07	7.834e-07	2.6461e-07	5.884e-08	3.2345e-07	2.3646e-07	4.4639e-08	2.811e-07	2.1557e-07	4.9169e-08	2.6474e-07	1.7225e-07	4.6219e-08	2.1847e-07	4.4205e-07	8.1989e-08	5.2403e-07	3.3651e-08	-1.2869e-08	2.0782e-08	3.1692e-07	6.2827e-08	3.7975e-07	1.1231e-07	9.4417e-08	2.0672e-07	1.8124e-07	1.7505e-07	3.5629e-07	1.1364e-07	1.0802e-07	2.2166e-07	8.4986e-08	6.2709e-08	1.4769e-07
3.9953e-07	2.372e-07	6.3673e-07	2.8372e-07	-1.1575e-08	2.7214e-07	5.581e-07	1.7113e-07	7.2923e-07	4.3144e-07	2.0614e-07	6.3759e-07	-2.2273e-08	-5.7795e-08	-8.0068e-08	-3.9851e-08	6.6946e-08	2.7095e-08	1.173e-07	1.36e-07	2.533e-07	-2.2822e-07	-7.9406e-08	-3.0762e-07	5.8867e-07	1.6018e-07	7.4886e-07	2.5294e-07	5.6338e-08	3.0928e-07	2.2611e-07	4.3148e-08	2.6926e-07	2.0581e-07	4.7325e-08	2.5313e-07	1.6423e-07	4.4762e-08	2.0899e-07	4.2266e-07	7.8518e-08	5.0118e-07	3.2023e-08	-1.2374e-08	1.9649e-08	3.0263e-07	6.0284e-08	3.6292e-07	1.0664e-07	9.0565e-08	1.9721e-07	1.7231e-07	1.6783e-07	3.4014e-07	1.0774e-07	1.0364e-07	2.1138e-07	8.0709e-08	6.0246e-08	1.4096e-07
3.8175e-07	2.2705e-07	6.088e-07	2.7036e-07	-1.0657e-08	2.597e-07	5.3248e-07	1.6402e-07	6.9651e-07	4.1119e-07	1.9664e-07	6.0783e-07	-2.0998e-08	-5.5173e-08	-7.6171e-08	-3.8031e-08	6.4165e-08	2.6134e-08	1.1162e-07	1.297e-07	2.4132e-07	-2.1842e-07	-7.5632e-08	-2.9406e-07	5.6131e-07	1.5295e-07	7.1426e-07	2.4125e-07	5.3831e-08	2.9508e-07	2.1575e-07	4.1638e-08	2.5738e-07	1.9604e-07	4.5467e-08	2.415e-07	1.562e-07	4.3282e-08	1.9949e-07	4.0323e-07	7.5037e-08	4.7827e-07	3.0397e-08	-1.1876e-08	1.852e-08	2.8834e-07	5.7728e-08	3.4606e-07	1.0099e-07	8.6696e-08	1.8769e-07	1.6339e-07	1.6059e-07	3.2398e-07	1.0186e-07	9.9246e-08	2.011e-07	7.6445e-08	5.7768e-08	1.3421e-07
3.6393e-07	2.1685e-07	5.8078e-07	2.57e-07	-9.7486e-09	2.4725e-07	5.0682e-07	1.5687e-07	6.637e-07	3.9092e-07	1.8712e-07	5.7804e-07	-1.9729e-08	-5.2546e-08	-7.2275e-08	-3.6205e-08	6.1368e-08	2.5164e-08	1.0593e-07	1.2339e-07	2.2932e-07	-2.0859e-07	-7.1855e-08	-2.8045e-07	5.3392e-07	1.457e-07	6.7962e-07	2.2955e-07	5.1318e-08	2.8086e-07	2.0536e-07	4.0108e-08	2.4547e-07	1.8626e-07	4.3594e-08	2.2985e-07	1.4818e-07	4.178e-08	1.8996e-07	3.8377e-07	7.1545e-08	4.5532e-07	2.8772e-08	-1.1376e-08	1.7397e-08	2.7403e-07	5.516e-08	3.2919e-07	9.5362e-08	8.281e-08	1.7817e-07	1.5449e-07	1.5332e-07	3.0781e-07	9.5999e-08	9.4828e-08	1.9083e-07	7.2195e-08	5.5275e-08	1.2747e-07
3.4606e-07	2.0661e-07	5.5267e-07	2.4362e-07	-8.8507e-09	2.3477e-07	4.8112e-07	1.4969e-07	6.3081e-07	3.7063e-07	1.7759e-07	5.4821e-07	-1.8466e-08	-4.9914e-08	-6.838e-08	-3.4372e-08	5.8556e-08	2.4184e-08	1.0025e-07	1.1707e-07	2.1732e-07	-1.9873e-07	-6.8077e-08	-2.6681e-07	5.0649e-07	1.3844e-07	6.4493e-07	2.1783e-07	4.88e-08	2.6663e-07	1.9496e-07	3.856e-08	2.3352e-07	1.7647e-07	4.1707e-08	2.1818e-07	1.4016e-07	4.0255e-08	1.8042e-07	3.6428e-07	6.8043e-08	4.3232e-07	2.7151e-08	-1.0873e-08	1.6278e-08	2.5972e-07	5.258e-08	3.123e-07	8.9747e-08	7.8908e-08	1.6866e-07	1.4561e-07	1.4602e-07	2.9163e-07	9.0162e-08	9.0392e-08	1.8055e-07	6.7959e-08	5.2767e-08	1.2073e-07
3.2815e-07	1.9633e-07	5.2448e-07	2.3023e-07	-7.9635e-09	2.2227e-07	4.5538e-07	1.4247e-07	5.9785e-07	3.5032e-07	1.6804e-07	5.1836e-07	-1.7209e-08	-4.7277e-08	-6.4486e-08	-3.2534e-08	5.5728e-08	2.3194e-08	9.4568e-08	1.1074e-07	2.0531e-07	-1.8883e-07	-6.4298e-08	-2.5312e-07	4.7903e-07	1.3116e-07	6.102e-07	2.0611e-07	4.6277e-08	2.5239e-07	1.8454e-07	3.6993e-08	2.2153e-07	1.6668e-07	3.9807e-08	2.0649e-07	1.3214e-07	3.8709e-08	1.7085e-07	3.4475e-07	6.4531e-08	4.0928e-07	2.5531e-08	-1.0367e-08	1.5164e-08	2.454e-07	4.9988e-08	2.9539e-07	8.415e-08	7.4991e-08	1.5914e-07	1.3675e-07	1.3869e-07	2.7543e-07	8.4346e-08	8.5936e-08	1.7028e-07	6.3736e-08	5.0244e-08	1.1398e-07
3.1019e-07	1.8602e-07	4.9621e-07	2.1684e-07	-7.0871e-09	2.0975e-07	4.296e-07	1.3522e-07	5.6482e-07	3.3e-07	1.5848e-07	4.8848e-07	-1.5959e-08	-4.4634e-08	-6.0593e-08	-3.0691e-08	5.2886e-08	2.2195e-08	8.8887e-08	1.0441e-07	1.9329e-07	-1.7889e-07	-6.0517e-08	-2.3941e-07	4.5155e-07	1.2387e-07	5.7542e-07	1.9438e-07	4.3748e-08	2.3813e-07	1.741e-07	3.5407e-08	2.095e-07	1.5689e-07	3.7892e-08	1.9478e-07	1.2413e-07	3.7141e-08	1.6127e-07	3.2519e-07	6.101e-08	3.862e-07	2.3915e-08	-9.8583e-09	1.4056e-08	2.3107e-07	4.7385e-08	2.7846e-07	7.8571e-08	7.1057e-08	1.4963e-07	1.279e-07	1.3133e-07	2.5923e-07	7.8554e-08	8.1462e-08	1.6002e-07	5.9528e-08	4.7707e-08	1.0723e-07
2.9219e-07	1.7566e-07	4.6785e-07	2.0344e-07	-6.2216e-09	1.9722e-07	4.0378e-07	1.2793e-07	5.3172e-07	3.0966e-07	1.4892e-07	4.5858e-07	-1.4715e-08	-4.1987e-08	-5.6702e-08	-2.8843e-08	5.0029e-08	2.1186e-08	8.3208e-08	9.8062e-08	1.8127e-07	-1.6892e-07	-5.6735e-08	-2.2565e-07	4.2404e-07	1.1657e-07	5.4061e-07	1.8264e-07	4.1214e-08	2.2385e-07	1.6365e-07	3.3802e-08	1.9745e-07	1.4709e-07	3.5964e-08	1.8305e-07	1.1612e-07	3.5551e-08	1.5167e-07	3.056e-07	5.748e-08	3.6308e-07	2.2301e-08	-9.3471e-09	1.2954e-08	2.1674e-07	4.4771e-08	2.6151e-07	7.3011e-08	6.7108e-08	1.4012e-07	1.1907e-07	1.2395e-07	2.4302e-07	7.2785e-08	7.6969e-08	1.4975e-07	5.5334e-08	4.5155e-08	1.0049e-07
2.7415e-07	1.6527e-07	4.3942e-07	1.9003e-07	-5.3674e-09	1.8467e-07	3.7793e-07	1.2061e-07	4.9855e-07	2.8931e-07	1.3934e-07	4.2865e-07	-1.3478e-08	-3.9336e-08	-5.2814e-08	-2.699e-08	4.7157e-08	2.0167e-08	7.7531e-08	9.1712e-08	1.6924e-07	-1.5891e-07	-5.2953e-08	-2.1186e-07	3.9651e-07	1.0926e-07	5.0577e-07	1.7089e-07	3.8675e-08	2.0956e-07	1.5318e-07	3.2179e-08	1.8536e-07	1.3729e-07	3.4023e-08	1.7131e-07	1.0811e-07	3.394e-08	1.4205e-07	2.8599e-07	5.3941e-08	3.3993e-07	2.069e-08	-8.8331e-09	1.1857e-08	2.0241e-07	4.2145e-08	2.4455e-07	6.747e-08	6.3145e-08	1.3061e-07	1.1026e-07	1.1655e-07	2.2681e-07	6.704e-08	7.2459e-08	1.395e-07	5.1155e-08	4.259e-08	9.3745e-08
2.5607e-07	1.5485e-07	4.1092e-07	1.7662e-07	-4.5245e-09	1.721e-07	3.5205e-07	1.1326e-07	4.6531e-07	2.6896e-07	1.2975e-07	3.9871e-07	-1.2247e-08	-3.668e-08	-4.8928e-08	-2.5133e-08	4.4272e-08	1.9138e-08	7.1857e-08	8.5355e-08	1.5721e-07	-1.4887e-07	-4.9171e-08	-1.9804e-07	3.6895e-07	1.0194e-07	4.7089e-07	1.5913e-07	3.6131e-08	1.9526e-07	1.427e-07	3.0538e-08	1.7323e-07	1.2749e-07	3.2068e-08	1.5956e-07	1.0011e-07	3.2306e-08	1.3241e-07	2.6635e-07	5.0393e-08	3.1674e-07	1.9083e-08	-8.3164e-09	1.0767e-08	1.8807e-07	3.9509e-08	2.2758e-07	6.1949e-08	5.9166e-08	1.2111e-07	1.0148e-07	1.0912e-07	2.1059e-07	6.132e-08	6.7931e-08	1.2925e-07	4.6991e-08	4.0011e-08	8.7002e-08
2.3795e-07	1.4438e-07	3.8234e-07	1.6321e-07	-3.6931e-09	1.5951e-07	3.2614e-07	1.0588e-07	4.3201e-07	2.4859e-07	1.2015e-07	3.6874e-07	-1.1024e-08	-3.4021e-08	-4.5044e-08	-2.3273e-08	4.1372e-08	1.8099e-08	6.6186e-08	7.8992e-08	1.4518e-07	-1.388e-07	-4.5388e-08	-1.8419e-07	3.4138e-07	9.4602e-08	4.3598e-07	1.4737e-07	3.3583e-08	1.8095e-07	1.322e-07	2.8878e-08	1.6108e-07	1.1768e-07	3.01e-08	1.4778e-07	9.2109e-08	3.0651e-08	1.2276e-07	2.4669e-07	4.6837e-08	2.9352e-07	1.7479e-08	-7.797e-09	9.6822e-09	1.7373e-07	3.6862e-08	2.106e-07	5.6447e-08	5.5173e-08	1.1162e-07	9.2711e-08	1.0166e-07	1.9437e-07	5.5626e-08	6.3386e-08	1.1901e-07	4.2843e-08	3.7418e-08	8.0261e-08
2.198e-07	1.3389e-07	3.5368e-07	1.4979e-07	-2.8734e-09	1.4692e-07	3.002e-07	9.8458e-08	3.9866e-07	2.2822e-07	1.1054e-07	3.3877e-07	-9.807e-09	-3.1357e-08	-4.1164e-08	-2.1409e-08	3.8459e-08	1.705e-08	6.052e-08	7.2625e-08	1.3314e-07	-1.2869e-07	-4.1606e-08	-1.703e-07	3.1378e-07	8.7256e-08	4.0104e-07	1.3559e-07	3.103e-08	1.6662e-07	1.217e-07	2.7201e-08	1.489e-07	1.0788e-07	2.8119e-08	1.36e-07	8.412e-08	2.8975e-08	1.1309e-07	2.27e-07	4.3273e-08	2.7027e-07	1.5879e-08	-7.2749e-09	8.6041e-09	1.594e-07	3.4205e-08	1.936e-07	5.0966e-08	5.1166e-08	1.0213e-07	8.3971e-08	9.4183e-08	1.7815e-07	4.9957e-08	5.8823e-08	1.0878e-07	3.871e-08	3.4812e-08	7.3523e-08
2.016e-07	1.2336e-07	3.2496e-07	1.3637e-07	-2.0656e-09	1.3431e-07	2.7423e-07	9.1008e-08	3.6524e-07	2.0785e-07	1.0093e-07	3.0878e-07	-8.5977e-09	-2.869e-08	-3.7287e-08	-1.9542e-08	3.5533e-08	1.5991e-08	5.4857e-08	6.6252e-08	1.2111e-07	-1.1856e-07	-3.7825e-08	-1.5638e-07	2.8618e-07	7.99e-08	3.6608e-07	1.2382e-07	2.8472e-08	1.5229e-07	1.1118e-07	2.5505e-08	1.3669e-07	9.808e-08	2.6125e-08	1.2421e-07	7.6138e-08	2.7277e-08	1.0342e-07	2.073e-07	3.9701e-08	2.47e-07	1.4283e-08	-6.7501e-09	7.5326e-09	1.4506e-07	3.1538e-08	1.766e-07	4.5506e-08	4.7145e-08	9.2651e-08	7.5255e-08	8.6681e-08	1.6194e-07	4.4314e-08	5.4244e-08	9.8558e-08	3.4593e-08	3.2194e-08	6.6787e-08
1.8338e-07	1.1279e-07	2.9617e-07	1.2295e-07	-1.2699e-09	1.2168e-07	2.4825e-07	8.3527e-08	3.3177e-07	1.8747e-07	9.1311e-08	2.7878e-07	-7.3956e-09	-2.6019e-08	-3.3415e-08	-1.7672e-08	3.2594e-08	1.4922e-08	4.92e-08	5.9876e-08	1.0908e-07	-1.0839e-07	-3.4045e-08	-1.4243e-07	2.5856e-07	7.2534e-08	3.3109e-07	1.1203e-07	2.5909e-08	1.3794e-07	1.0065e-07	2.3792e-08	1.2445e-07	8.8281e-08	2.4119e-08	1.124e-07	6.8165e-08	2.5558e-08	9.3723e-08	1.8758e-07	3.6122e-08	2.237e-07	1.269e-08	-6.2226e-09	6.4678e-09	1.3072e-07	2.8861e-08	1.5958e-07	4.0067e-08	4.3111e-08	8.3178e-08	6.6565e-08	7.9157e-08	1.4572e-07	3.8698e-08	4.9649e-08	8.8347e-08	3.0493e-08	2.9563e-08	6.0055e-08
1.6512e-07	1.0219e-07	2.6731e-07	1.0953e-07	-4.8644e-10	1.0905e-07	2.2224e-07	7.6014e-08	2.9825e-07	1.6709e-07	8.1685e-08	2.4878e-07	-6.201e-09	-2.3345e-08	-2.9546e-08	-1.5799e-08	2.9642e-08	1.3843e-08	4.3549e-08	5.3496e-08	9.7045e-08	-9.8189e-08	-3.0266e-08	-1.2846e-07	2.3093e-07	6.5159e-08	2.9609e-07	1.0024e-07	2.3343e-08	1.2359e-07	9.0119e-08	2.2061e-08	1.1218e-07	7.8484e-08	2.21e-08	1.0058e-07	6.0202e-08	2.3818e-08	8.402e-08	1.6784e-07	3.2536e-08	2.0037e-07	1.1102e-08	-5.6923e-09	5.4099e-09	1.1639e-07	2.6174e-08	1.4256e-07	3.465e-08	3.9063e-08	7.3714e-08	5.7901e-08	7.1612e-08	1.2951e-07	3.311e-08	4.5038e-08	7.8148e-08	2.6409e-08	2.6919e-08	5.3328e-08
1.4683e-07	9.1563e-08	2.3839e-07	9.6116e-08	2.8462e-10	9.6401e-08	1.9621e-07	6.8471e-08	2.6468e-07	1.4671e-07	7.2053e-08	2.1877e-07	-5.014e-09	-2.0668e-08	-2.5682e-08	-1.3925e-08	2.6678e-08	1.2754e-08	3.7903e-08	4.7114e-08	8.5017e-08	-8.796e-08	-2.6489e-08	-1.1445e-07	2.0329e-07	5.7775e-08	2.6107e-07	8.8449e-08	2.0772e-08	1.0922e-07	7.9575e-08	2.0312e-08	9.9887e-08	6.8691e-08	2.0069e-08	8.876e-08	5.2249e-08	2.2056e-08	7.4305e-08	1.4809e-07	2.8943e-08	1.7703e-07	9.5185e-09	-5.1594e-09	4.3591e-09	1.0206e-07	2.3478e-08	1.2554e-07	2.9256e-08	3.5003e-08	6.4259e-08	4.9264e-08	6.4045e-08	1.1331e-07	2.7549e-08	4.0411e-08	6.7961e-08	2.2341e-08	2.4263e-08	4.6605e-08
1.285e-07	8.0901e-08	2.094e-07	8.2702e-08	1.0431e-09	8.3745e-08	1.7017e-07	6.0898e-08	2.3106e-07	1.2634e-07	6.2417e-08	1.8875e-07	-3.8347e-09	-1.7988e-08	-2.1823e-08	-1.2048e-08	2.3702e-08	1.1654e-08	3.2264e-08	4.0729e-08	7.2993e-08	-7.7701e-08	-2.2714e-08	-1.0042e-07	1.7565e-07	5.0383e-08	2.2603e-07	7.6653e-08	1.8197e-08	9.4849e-08	6.9023e-08	1.8546e-08	8.7569e-08	5.8902e-08	1.8025e-08	7.6928e-08	4.4307e-08	2.0274e-08	6.4581e-08	1.2832e-07	2.5343e-08	1.5367e-07	7.9392e-09	-4.6237e-09	3.3155e-09	8.7736e-08	2.0774e-08	1.0851e-07	2.3884e-08	3.093e-08	5.4814e-08	4.0656e-08	5.6457e-08	9.7113e-08	2.2018e-08	3.5769e-08	5.7787e-08	1.8291e-08	2.1596e-08	3.9887e-08
1.1015e-07	7.0208e-08	1.8036e-07	6.9292e-08	1.7888e-09	7.1081e-08	1.4411e-07	5.3295e-08	1.974e-07	1.0597e-07	5.2777e-08	1.5874e-07	-2.6633e-09	-1.5306e-08	-1.7969e-08	-1.017e-08	2.0714e-08	1.0544e-08	2.6632e-08	3.4343e-08	6.0975e-08	-6.7414e-08	-1.8941e-08	-8.6355e-08	1.48e-07	4.2983e-08	1.9099e-07	6.4852e-08	1.5617e-08	8.047e-08	5.8465e-08	1.6763e-08	7.5228e-08	4.9119e-08	1.597e-08	6.5089e-08	3.6377e-08	1.8471e-08	5.4848e-08	1.0855e-07	2.1737e-08	1.3029e-07	6.3647e-09	-4.0854e-09	2.2793e-09	7.3418e-08	1.806e-08	9.1478e-08	1.8535e-08	2.6845e-08	4.538e-08	3.2078e-08	4.8849e-08	8.0927e-08	1.6515e-08	3.1113e-08	4.7628e-08	1.4258e-08	1.8917e-08	3.3174e-08
9.1768e-08	5.9485e-08	1.5125e-07	5.5887e-08	2.5216e-09	5.8409e-08	1.1803e-07	4.5663e-08	1.637e-07	8.5599e-08	4.3134e-08	1.2873e-07	-1.4998e-09	-1.2621e-08	-1.4121e-08	-8.2913e-09	1.7715e-08	9.4233e-09	2.1008e-08	2.7955e-08	4.8964e-08	-5.7098e-08	-1.5171e-08	-7.2268e-08	1.2036e-07	3.5575e-08	1.5593e-07	5.305e-08	1.3034e-08	6.6084e-08	4.7902e-08	1.4962e-08	6.2864e-08	3.9343e-08	1.3903e-08	5.3246e-08	2.846e-08	1.6647e-08	4.5107e-08	8.8766e-08	1.8125e-08	1.0689e-07	4.795e-09	-3.5443e-09	1.2506e-09	5.9107e-08	1.5338e-08	7.4444e-08	1.3209e-08	2.2748e-08	3.5958e-08	2.353e-08	4.1222e-08	6.4752e-08	1.1042e-08	2.6441e-08	3.7483e-08	1.0242e-08	1.6227e-08	2.6468e-08
7.336e-08	4.8732e-08	1.2209e-07	4.2488e-08	3.2413e-09	4.573e-08	9.1953e-08	3.8002e-08	1.2995e-07	6.524e-08	3.3489e-08	9.8729e-08	-3.4452e-10	-9.9343e-09	-1.0279e-08	-6.4115e-09	1.4704e-08	8.2925e-09	1.5393e-08	2.1567e-08	3.696e-08	-4.6754e-08	-1.1404e-08	-5.8157e-08	9.2709e-08	2.816e-08	1.2087e-07	4.1245e-08	1.0447e-08	5.1692e-08	3.7334e-08	1.3145e-08	5.0479e-08	2.9573e-08	1.1824e-08	4.1397e-08	2.0556e-08	1.4803e-08	3.5359e-08	6.8977e-08	1.4508e-08	8.3485e-08	3.2303e-09	-3.0006e-09	2.2968e-10	4.4804e-08	1.2607e-08	5.7411e-08	7.9078e-09	1.864e-08	2.6548e-08	1.5013e-08	3.3576e-08	4.859e-08	5.5989e-09	2.1755e-08	2.7354e-08	6.2438e-09	1.3525e-08	1.9769e-08
5.4926e-08	3.795e-08	9.2876e-08	2.9096e-08	3.9478e-09	3.3044e-08	6.5863e-08	3.0312e-08	9.6175e-08	4.489e-08	2.3842e-08	6.8732e-08	8.0252e-10	-7.2454e-09	-6.4429e-09	-4.5313e-09	1.1683e-08	7.1513e-09	9.7854e-09	1.5179e-08	2.4964e-08	-3.6383e-08	-7.6398e-09	-4.4022e-08	6.5064e-08	2.0738e-08	8.5802e-08	2.9439e-08	7.8567e-09	3.7296e-08	2.6762e-08	1.1311e-08	3.8072e-08	1.9812e-08	9.7334e-09	2.9546e-08	1.2667e-08	1.2938e-08	2.5605e-08	4.9183e-08	1.0885e-08	6.0068e-08	1.6707e-09	-2.4542e-09	-7.8343e-10	3.051e-08	9.8689e-09	4.0379e-08	2.6307e-09	1.452e-08	1.7151e-08	6.5293e-09	2.5912e-08	3.2441e-08	1.8663e-10	1.7056e-08	1.7242e-08	2.2638e-09	1.0813e-08	1.3077e-08
3.6467e-08	2.7141e-08	6.3608e-08	1.5713e-08	4.6408e-09	2.0354e-08	3.9766e-08	2.2595e-08	6.2362e-08	2.455e-08	1.4194e-08	3.8745e-08	1.9412e-09	-4.5547e-09	-2.6135e-09	-2.6509e-09	8.6505e-09	5.9996e-09	4.1875e-09	8.7915e-09	1.2979e-08	-2.5985e-08	-3.8795e-09	-2.9864e-08	3.7424e-08	1.331e-08	5.0734e-08	1.7632e-08	5.2624e-09	2.2894e-08	1.6187e-08	9.4597e-09	2.5646e-08	1.006e-08	7.6317e-09	1.7692e-08	4.7928e-09	1.1053e-08	1.5846e-08	2.9386e-08	7.2572e-09	3.6643e-08	1.1651e-10	-1.9051e-09	-1.7886e-09	1.6227e-08	7.1225e-09	2.335e-08	-2.6216e-09	1.039e-08	7.7683e-09	-1.9214e-09	1.823e-08	1.6309e-08	-5.1945e-09	1.2343e-08	7.1481e-09	-1.6981e-09	8.091e-09	6.3929e-09
1.7985e-08	1.6303e-08	3.4289e-08	2.3387e-09	5.3203e-09	7.659e-09	1.3666e-08	1.4851e-08	2.8517e-08	4.2235e-09	4.5466e-09	8.7701e-09	3.0713e-09	-1.8625e-09	1.2088e-09	-7.7066e-10	5.6082e-09	4.8375e-09	-1.4006e-09	2.4053e-09	1.0047e-09	-1.5561e-08	-1.2308e-10	-1.5684e-08	9.7916e-09	5.8756e-09	1.5667e-08	5.8248e-09	2.6647e-09	8.4895e-09	5.6096e-09	7.5923e-09	1.3202e-08	3.1763e-10	5.5188e-09	5.8365e-09	-3.0651e-09	9.1474e-09	6.0823e-09	9.5882e-09	3.6245e-09	1.3213e-08	-1.4322e-09	-1.3533e-09	-2.7855e-09	1.9554e-09	4.3687e-09	6.324e-09	-7.8487e-09	6.2487e-09	-1.6e-09	-1.0338e-08	1.0531e-08	1.9335e-10	-1.0544e-08	7.6163e-09	-2.9277e-09	-5.6416e-09	5.3585e-09	-2.8305e-10
-5.1802e-10	5.4393e-09	4.9213e-09	-1.1025e-08	5.986e-09	-5.039e-09	-1.2436e-08	7.0789e-09	-5.3571e-09	-1.6089e-08	-5.1008e-09	-2.119e-08	4.1927e-09	8.311e-10	5.0238e-09	1.1091e-09	2.5558e-09	3.6649e-09	-6.9785e-09	-3.9791e-09	-1.0958e-08	-5.1119e-09	3.6291e-09	-1.4828e-09	-1.7832e-08	-1.5637e-09	-1.9395e-08	-5.982e-09	6.3556e-11	-5.9185e-09	-4.9686e-09	5.7086e-09	7.3997e-10	-9.414e-09	3.395e-09	-6.019e-09	-1.0906e-08	7.2219e-09	-3.6842e-09	-1.0209e-08	-1.2617e-11	-1.0222e-08	-2.9754e-09	-7.9889e-10	-3.7742e-09	-1.2304e-08	1.6075e-09	-1.0697e-08	-1.305e-08	2.0974e-09	-1.0953e-08	-1.8719e-08	2.8156e-09	-1.5903e-08	-1.5861e-08	2.8771e-09	-1.2984e-08	-9.5664e-09	2.6162e-09	-6.9502e-09
-1.9042e-08	-5.4508e-09	-2.4493e-08	-2.4377e-08	6.6378e-09	-1.774e-08	-3.8538e-08	-7.1917e-10	-3.9257e-08	-3.6386e-08	-1.4747e-08	-5.1133e-08	5.3053e-09	3.5258e-09	8.8311e-09	2.9879e-09	-5.0622e-10	2.4817e-09	-1.2546e-08	-1.0361e-08	-2.2907e-08	5.3621e-09	7.3767e-09	1.2739e-08	-4.5444e-08	-9.0081e-09	-5.4452e-08	-1.7788e-08	-2.5408e-09	-2.0329e-08	-1.5547e-08	3.8087e-09	-1.1738e-08	-1.9134e-08	1.2604e-09	-1.7874e-08	-1.873e-08	5.2765e-09	-1.3453e-08	-3.0004e-08	-3.6539e-09	-3.3658e-08	-4.5127e-09	-2.4183e-10	-4.7546e-09	-2.655e-08	-1.1607e-09	-2.7711e-08	-1.8226e-08	-2.0639e-09	-2.029e-08	-2.7064e-08	-4.9157e-09	-3.1979e-08	-2.1146e-08	-1.8746e-09	-2.302e-08	-1.3472e-08	-1.3567e-10	-1.3608e-08
-3.7585e-08	-1.6366e-08	-5.3952e-08	-3.7717e-08	7.2756e-09	-3.0442e-08	-6.4638e-08	-8.5433e-09	-7.3181e-08	-5.6666e-08	-2.4391e-08	-8.1057e-08	6.409e-09	6.2214e-09	1.263e-08	4.8657e-09	-3.5777e-09	1.288e-09	-1.8102e-08	-1.674e-08	-3.4842e-08	1.586e-08	1.112e-08	2.698e-08	-7.3042e-08	-1.6457e-08	-8.9499e-08	-2.9593e-08	-5.1484e-09	-3.4741e-08	-2.6125e-08	1.8927e-09	-2.4232e-08	-2.8842e-08	-8.8478e-10	-2.9726e-08	-2.6535e-08	3.3114e-09	-2.3223e-08	-4.9794e-08	-7.2991e-09	-5.7093e-08	-6.0442e-09	3.1787e-10	-5.7263e-09	-4.0782e-08	-3.9357e-09	-4.4717e-08	-2.3375e-08	-6.2348e-09	-2.961e-08	-3.5371e-08	-1.2662e-08	-4.8033e-08	-2.6397e-08	-6.6385e-09	-3.3036e-08	-1.7359e-08	-2.8968e-09	-2.0256e-08
-5.6146e-08	-2.7306e-08	-8.3453e-08	-5.1043e-08	7.8991e-09	-4.3144e-08	-9.0733e-08	-1.6393e-08	-1.0713e-07	-7.6927e-08	-3.4032e-08	-1.1096e-07	7.5036e-09	8.9177e-09	1.6421e-08	6.742e-09	-6.6582e-09	8.3797e-11	-2.3646e-08	-2.3116e-08	-4.6762e-08	2.6382e-08	1.4857e-08	4.1239e-08	-1.0062e-07	-2.391e-08	-1.2453e-07	-4.1395e-08	-7.759e-09	-4.9154e-08	-3.6701e-08	-3.9059e-11	-3.674e-08	-3.8536e-08	-3.0404e-09	-4.1576e-08	-3.432e-08	1.3265e-09	-3.2994e-08	-6.9579e-08	-1.0948e-08	-8.0526e-08	-7.5696e-09	8.802e-10	-6.6894e-09	-5.4998e-08	-6.7172e-09	-6.1715e-08	-2.8498e-08	-1.0415e-08	-3.8913e-08	-4.3641e-08	-2.0423e-08	-6.4064e-08	-3.1615e-08	-1.1414e-08	-4.3029e-08	-2.1227e-08	-5.667e-09	-2.6894e-08
-7.4724e-08	-3.8271e-08	-1.1299e-07	-6.4355e-08	8.5083e-09	-5.5847e-08	-1.1682e-07	-2.4268e-08	-1.4109e-07	-9.7167e-08	-4.367e-08	-1.4084e-07	8.589e-09	1.1615e-08	2.0204e-08	8.6165e-09	-9.7475e-09	-1.131e-09	-2.9178e-08	-2.9488e-08	-5.8665e-08	3.6927e-08	1.8589e-08	5.5516e-08	-1.2819e-07	-3.1367e-08	-1.5956e-07	-5.3195e-08	-1.0373e-08	-6.3568e-08	-4.7275e-08	-1.9865e-09	-4.9261e-08	-4.8216e-08	-5.2062e-09	-5.3422e-08	-4.2086e-08	-6.7781e-10	-4.2764e-08	-8.9355e-08	-1.46e-08	-1.0395e-07	-9.0889e-09	1.4451e-09	-7.6437e-09	-6.9197e-08	-9.5051e-09	-7.8702e-08	-3.3593e-08	-1.4604e-08	-4.8197e-08	-5.1871e-08	-2.8199e-08	-8.007e-08	-3.6799e-08	-1.6201e-08	-5.3e-08	-2.5075e-08	-8.4459e-09	-3.3521e-08
-9.3317e-08	-4.9258e-08	-1.4258e-07	-7.7651e-08	9.103e-09	-6.8548e-08	-1.429e-07	-3.2167e-08	-1.7507e-07	-1.1738e-07	-5.3304e-08	-1.7069e-07	9.665e-09	1.4312e-08	2.3977e-08	1.0489e-08	-1.2845e-08	-2.3564e-09	-3.4697e-08	-3.5855e-08	-7.0551e-08	4.7494e-08	2.2316e-08	6.981e-08	-1.5573e-07	-3.8826e-08	-1.9456e-07	-6.4992e-08	-1.2989e-08	-7.7981e-08	-5.7845e-08	-3.9495e-09	-6.1795e-08	-5.7881e-08	-7.3821e-09	-6.5263e-08	-4.9831e-08	-2.7015e-09	-5.2532e-08	-1.0912e-07	-1.8255e-08	-1.2738e-07	-1.0602e-08	2.0127e-09	-8.5892e-09	-8.3379e-08	-1.2299e-08	-9.5678e-08	-3.8661e-08	-1.8802e-08	-5.7463e-08	-6.0062e-08	-3.5987e-08	-9.6049e-08	-4.1948e-08	-2.1e-08	-6.2947e-08	-2.8903e-08	-1.1233e-08	-4.0136e-08
-1.1192e-07	-6.0268e-08	-1.7219e-07	-9.093e-08	9.6831e-09	-8.1247e-08	-1.6897e-07	-4.009e-08	-2.0906e-07	-1.3758e-07	-6.2933e-08	-2.0051e-07	1.0732e-08	1.7009e-08	2.774e-08	1.2359e-08	-1.5951e-08	-3.5925e-09	-4.0203e-08	-4.2216e-08	-8.2419e-08	5.8083e-08	2.6036e-08	8.4119e-08	-1.8326e-07	-4.6289e-08	-2.2954e-07	-7.6785e-08	-1.5608e-08	-9.2393e-08	-6.8412e-08	-5.9278e-09	-7.4339e-08	-6.7529e-08	-9.5679e-09	-7.7097e-08	-5.7554e-08	-4.7444e-09	-6.2299e-08	-1.2888e-07	-2.1912e-08	-1.5079e-07	-1.2108e-08	2.5828e-09	-9.5256e-09	-9.7543e-08	-1.5099e-08	-1.1264e-07	-4.3701e-08	-2.3008e-08	-6.6709e-08	-6.8212e-08	-4.3789e-08	-1.12e-07	-4.7062e-08	-2.5809e-08	-7.287e-08	-3.2712e-08	-1.4029e-08	-4.674e-08
-1.3054e-07	-7.1299e-08	-2.0184e-07	-1.0419e-07	1.0248e-08	-9.3944e-08	-1.9503e-07	-4.8037e-08	-2.4307e-07	-1.5775e-07	-7.2556e-08	-2.303e-07	1.1788e-08	1.9706e-08	3.1494e-08	1.4226e-08	-1.9065e-08	-4.8391e-09	-4.5695e-08	-4.8572e-08	-9.4267e-08	6.8693e-08	2.975e-08	9.8443e-08	-2.1075e-07	-5.3754e-08	-2.6451e-07	-8.8574e-08	-1.823e-08	-1.068e-07	-7.8973e-08	-7.9213e-09	-8.6894e-08	-7.7162e-08	-1.1763e-08	-8.8925e-08	-6.5255e-08	-6.8064e-09	-7.2062e-08	-1.4862e-07	-2.5573e-08	-1.7419e-07	-1.3608e-08	3.1556e-09	-1.0453e-08	-1.1169e-07	-1.7904e-08	-1.2959e-07	-4.8713e-08	-2.7222e-08	-7.5935e-08	-7.632e-08	-5.1602e-08	-1.2792e-07	-5.214e-08	-3.0628e-08	-8.2768e-08	-3.65e-08	-1.6832e-08	-5.3332e-08
-1.4918e-07	-8.2352e-08	-2.3153e-07	-1.1743e-07	1.0799e-08	-1.0664e-07	-2.2107e-07	-5.6008e-08	-2.7708e-07	-1.7789e-07	-8.2173e-08	-2.6006e-07	1.2836e-08	2.2403e-08	3.5238e-08	1.6091e-08	-2.2187e-08	-6.0963e-09	-5.1173e-08	-5.4922e-08	-1.061e-07	7.9323e-08	3.3458e-08	1.1278e-07	-2.3823e-07	-6.1221e-08	-2.9945e-07	-1.0036e-07	-2.0854e-08	-1.2121e-07	-8.9528e-08	-9.9297e-09	-9.9458e-08	-8.6776e-08	-1.3968e-08	-1.0074e-07	-7.2933e-08	-8.8872e-09	-8.182e-08	-1.6835e-07	-2.9235e-08	-1.9758e-07	-1.5102e-08	3.7309e-09	-1.1371e-08	-1.2581e-07	-2.0714e-08	-1.4652e-07	-5.3696e-08	-3.1443e-08	-8.514e-08	-8.4385e-08	-5.9427e-08	-1.4381e-07	-5.7182e-08	-3.5458e-08	-9.264e-08	-4.0268e-08	-1.9643e-08	-5.9911e-08
-1.6782e-07	-9.3425e-08	-2.6124e-07	-1.3066e-07	1.1334e-08	-1.1932e-07	-2.471e-07	-6.4e-08	-3.111e-07	-1.98e-07	-9.1783e-08	-2.8978e-07	1.3873e-08	2.5099e-08	3.8972e-08	1.7952e-08	-2.5316e-08	-7.3642e-09	-5.6637e-08	-6.1265e-08	-1.179e-07	8.9974e-08	3.7158e-08	1.2713e-07	-2.6567e-07	-6.8689e-08	-3.3436e-07	-1.1214e-07	-2.348e-08	-1.3562e-07	-1.0008e-07	-1.1953e-08	-1.1203e-07	-9.6372e-08	-1.6183e-08	-1.1255e-07	-8.0587e-08	-1.0987e-08	-9.1574e-08	-1.8806e-07	-3.2899e-08	-2.2096e-07	-1.6588e-08	4.3087e-09	-1.228e-08	-1.3991e-07	-2.353e-08	-1.6344e-07	-5.8651e-08	-3.5672e-08	-9.4323e-08	-9.2407e-08	-6.7264e-08	-1.5967e-07	-6.2189e-08	-4.0297e-08	-1.0249e-07	-4.4015e-08	-2.2461e-08	-6.6476e-08
-1.8647e-07	-1.0452e-07	-2.9098e-07	-1.4386e-07	1.1854e-08	-1.3201e-07	-2.731e-07	-7.2015e-08	-3.4512e-07	-2.1808e-07	-1.0139e-07	-3.1947e-07	1.49e-08	2.7794e-08	4.2694e-08	1.9809e-08	-2.8452e-08	-8.6427e-09	-6.2085e-08	-6.7601e-08	-1.2969e-07	1.0064e-07	4.0851e-08	1.4149e-07	-2.9308e-07	-7.6159e-08	-3.6924e-07	-1.2391e-07	-2.6109e-08	-1.5002e-07	-1.1062e-07	-1.3991e-08	-1.2461e-07	-1.0595e-07	-1.8406e-08	-1.2435e-07	-8.8216e-08	-1.3105e-08	-1.0132e-07	-2.0775e-07	-3.6564e-08	-2.4432e-07	-1.8068e-08	4.8891e-09	-1.3179e-08	-1.5399e-07	-2.635e-08	-1.8034e-07	-6.3576e-08	-3.9908e-08	-1.0348e-07	-1.0038e-07	-7.511e-08	-1.7549e-07	-6.7158e-08	-4.5145e-08	-1.123e-07	-4.7742e-08	-2.5286e-08	-7.3028e-08
-2.0512e-07	-1.1563e-07	-3.2075e-07	-1.5704e-07	1.2358e-08	-1.4468e-07	-2.9909e-07	-8.0052e-08	-3.7914e-07	-2.3813e-07	-1.1098e-07	-3.4911e-07	1.5917e-08	3.0488e-08	4.6406e-08	2.1663e-08	-3.1595e-08	-9.9318e-09	-6.7518e-08	-7.3928e-08	-1.4145e-07	1.1133e-07	4.4537e-08	1.5587e-07	-3.2046e-07	-8.3629e-08	-4.0409e-07	-1.3568e-07	-2.874e-08	-1.6442e-07	-1.2115e-07	-1.6043e-08	-1.3719e-07	-1.1551e-07	-2.0638e-08	-1.3614e-07	-9.582e-08	-1.5242e-08	-1.1106e-07	-2.2742e-07	-4.0231e-08	-2.6765e-07	-1.9541e-08	5.472e-09	-1.4069e-08	-1.6805e-07	-2.9175e-08	-1.9722e-07	-6.8472e-08	-4.4151e-08	-1.1262e-07	-1.0832e-07	-8.2966e-08	-1.9128e-07	-7.209e-08	-5.0003e-08	-1.2209e-07	-5.1448e-08	-2.8118e-08	-7.9566e-08
-2.2379e-07	-1.2676e-07	-3.5055e-07	-1.702e-07	1.2848e-08	-1.5735e-07	-3.2505e-07	-8.8109e-08	-4.1316e-07	-2.5815e-07	-1.2056e-07	-3.7871e-07	1.6924e-08	3.3182e-08	5.0106e-08	2.3512e-08	-3.4744e-08	-1.1231e-08	-7.2934e-08	-8.0247e-08	-1.5318e-07	1.2204e-07	4.8214e-08	1.7025e-07	-3.4781e-07	-9.1099e-08	-4.3891e-07	-1.4744e-07	-3.1372e-08	-1.7881e-07	-1.3167e-07	-1.811e-08	-1.4978e-07	-1.2504e-07	-2.2879e-08	-1.4792e-07	-1.034e-07	-1.7396e-08	-1.2079e-07	-2.4707e-07	-4.3899e-08	-2.9097e-07	-2.1006e-08	6.0575e-09	-1.4949e-08	-1.8208e-07	-3.2005e-08	-2.1408e-07	-7.3338e-08	-4.84e-08	-1.2174e-07	-1.162e-07	-9.0832e-08	-2.0703e-07	-7.6984e-08	-5.4869e-08	-1.3185e-07	-5.5133e-08	-3.0956e-08	-8.6088e-08
-2.4246e-07	-1.3791e-07	-3.8036e-07	-1.8333e-07	1.3321e-08	-1.7001e-07	-3.5099e-07	-9.6187e-08	-4.4718e-07	-2.7813e-07	-1.3014e-07	-4.0827e-07	1.7921e-08	3.5873e-08	5.3794e-08	2.5357e-08	-3.7899e-08	-1.2542e-08	-7.8335e-08	-8.6557e-08	-1.6489e-07	1.3276e-07	5.1884e-08	1.8465e-07	-3.7511e-07	-9.8569e-08	-4.7368e-07	-1.5919e-07	-3.4007e-08	-1.932e-07	-1.4218e-07	-2.019e-08	-1.6237e-07	-1.3455e-07	-2.5129e-08	-1.5968e-07	-1.1095e-07	-1.9569e-08	-1.3052e-07	-2.667e-07	-4.7567e-08	-3.1427e-07	-2.2464e-08	6.6454e-09	-1.5819e-08	-1.9608e-07	-3.4838e-08	-2.3092e-07	-7.8173e-08	-5.2655e-08	-1.3083e-07	-1.2404e-07	-9.8706e-08	-2.2275e-07	-8.184e-08	-5.9744e-08	-1.4158e-07	-5.8797e-08	-3.38e-08	-9.2596e-08
-2.6113e-07	-1.4907e-07	-4.102e-07	-1.9644e-07	1.3779e-08	-1.8266e-07	-3.769e-07	-1.0429e-07	-4.8119e-07	-2.9807e-07	-1.3971e-07	-4.3778e-07	1.8906e-08	3.8564e-08	5.747e-08	2.7197e-08	-4.106e-08	-1.3863e-08	-8.3718e-08	-9.2857e-08	-1.7658e-07	1.435e-07	5.5545e-08	1.9905e-07	-4.0238e-07	-1.0604e-07	-5.0842e-07	-1.7093e-07	-3.6644e-08	-2.0758e-07	-1.5268e-07	-2.2285e-08	-1.7497e-07	-1.4405e-07	-2.7387e-08	-1.7143e-07	-1.1847e-07	-2.176e-08	-1.4023e-07	-2.863e-07	-5.1236e-08	-3.3754e-07	-2.3915e-08	7.2359e-09	-1.668e-08	-2.1006e-07	-3.7675e-08	-2.4774e-07	-8.2978e-08	-5.6915e-08	-1.3989e-07	-1.3183e-07	-1.0659e-07	-2.3842e-07	-8.6657e-08	-6.4626e-08	-1.5128e-07	-6.2439e-08	-3.665e-08	-9.9089e-08
-2.798e-07	-1.6025e-07	-4.4005e-07	-2.0952e-07	1.4221e-08	-1.953e-07	-4.0278e-07	-1.124e-07	-5.1519e-07	-3.1798e-07	-1.4926e-07	-4.6724e-07	1.9882e-08	4.1252e-08	6.1134e-08	2.9032e-08	-4.4226e-08	-1.5194e-08	-8.9084e-08	-9.9147e-08	-1.8823e-07	1.5426e-07	5.9198e-08	2.1346e-07	-4.2961e-07	-1.1351e-07	-5.4312e-07	-1.8267e-07	-3.9282e-08	-2.2195e-07	-1.6317e-07	-2.4393e-08	-1.8757e-07	-1.5351e-07	-2.9653e-08	-1.8317e-07	-1.2597e-07	-2.3969e-08	-1.4994e-07	-3.0588e-07	-5.4905e-08	-3.6078e-07	-2.5359e-08	7.8288e-09	-1.753e-08	-2.2401e-07	-4.0516e-08	-2.6453e-07	-8.7753e-08	-6.1181e-08	-1.4893e-07	-1.3958e-07	-1.1448e-07	-2.5405e-07	-9.1436e-08	-6.9517e-08	-1.6095e-07	-6.606e-08	-3.9505e-08	-1.0556e-07
-2.9848e-07	-1.7145e-07	-4.6992e-07	-2.2258e-07	1.4647e-08	-2.0793e-07	-4.2863e-07	-1.2054e-07	-5.4918e-07	-3.3784e-07	-1.588e-07	-4.9664e-07	2.0846e-08	4.3939e-08	6.4784e-08	3.0862e-08	-4.7398e-08	-1.6536e-08	-9.4432e-08	-1.0543e-07	-1.9986e-07	1.6503e-07	6.2841e-08	2.2787e-07	-4.568e-07	-1.2097e-07	-5.7777e-07	-1.944e-07	-4.1921e-08	-2.3632e-07	-1.7365e-07	-2.6515e-08	-2.0016e-07	-1.6296e-07	-3.1927e-08	-1.9488e-07	-1.3343e-07	-2.6195e-08	-1.5963e-07	-3.2542e-07	-5.8573e-08	-3.84e-07	-2.6795e-08	8.4241e-09	-1.8371e-08	-2.3793e-07	-4.336e-08	-2.8129e-07	-9.2496e-08	-6.5452e-08	-1.5795e-07	-1.4727e-07	-1.2237e-07	-2.6964e-07	-9.6175e-08	-7.4414e-08	-1.7059e-07	-6.9659e-08	-4.2366e-08	-1.1202e-07
-3.1715e-07	-1.8266e-07	-4.9981e-07	-2.3561e-07	1.5057e-08	-2.2055e-07	-4.5445e-07	-1.287e-07	-5.8315e-07	-3.5767e-07	-1.6833e-07	-5.26e-07	2.1799e-08	4.6623e-08	6.8422e-08	3.2686e-08	-5.0575e-08	-1.7889e-08	-9.9762e-08	-1.1169e-07	-2.1146e-07	1.7582e-07	6.6476e-08	2.4229e-07	-4.8394e-07	-1.2844e-07	-6.1238e-07	-2.0611e-07	-4.4562e-08	-2.5068e-07	-1.8411e-07	-2.8649e-08	-2.1276e-07	-1.7237e-07	-3.4208e-08	-2.0658e-07	-1.4087e-07	-2.8438e-08	-1.6931e-07	-3.4494e-07	-6.2241e-08	-4.0718e-07	-2.8224e-08	9.0219e-09	-1.9202e-08	-2.5183e-07	-4.6207e-08	-2.9804e-07	-9.7207e-08	-6.9727e-08	-1.6693e-07	-1.5491e-07	-1.3027e-07	-2.8519e-07	-1.0087e-07	-7.9318e-08	-1.8019e-07	-7.3236e-08	-4.5232e-08	-1.1847e-07
-3.3582e-07	-1.9388e-07	-5.297e-07	-2.4861e-07	1.545e-08	-2.3316e-07	-4.8024e-07	-1.3687e-07	-6.1711e-07	-3.7745e-07	-1.7785e-07	-5.553e-07	2.2742e-08	4.9305e-08	7.2046e-08	3.4504e-08	-5.3756e-08	-1.9252e-08	-1.0507e-07	-1.1795e-07	-2.2302e-07	1.8662e-07	7.01e-08	2.5672e-07	-5.1104e-07	-1.359e-07	-6.4694e-07	-2.1782e-07	-4.7205e-08	-2.6502e-07	-1.9456e-07	-3.0797e-08	-2.2536e-07	-1.8177e-07	-3.6498e-08	-2.1826e-07	-1.4827e-07	-3.0699e-08	-1.7897e-07	-3.6443e-07	-6.5908e-08	-4.3033e-07	-2.9644e-08	9.6222e-09	-2.0022e-08	-2.6569e-07	-4.9057e-08	-3.1475e-07	-1.0189e-07	-7.4007e-08	-1.7589e-07	-1.6251e-07	-1.3818e-07	-3.0069e-07	-1.0553e-07	-8.4229e-08	-1.8976e-07	-7.6791e-08	-4.8102e-08	-1.2489e-07
-3.545e-07	-2.0512e-07	-5.5961e-07	-2.6158e-07	1.5828e-08	-2.4575e-07	-5.0598e-07	-1.4506e-07	-6.5105e-07	-3.9719e-07	-1.8735e-07	-5.8454e-07	2.3673e-08	5.1984e-08	7.5657e-08	3.6316e-08	-5.6942e-08	-2.0626e-08	-1.1037e-07	-1.242e-07	-2.3456e-07	1.9744e-07	7.3715e-08	2.7115e-07	-5.3808e-07	-1.4336e-07	-6.8144e-07	-2.2952e-07	-4.9848e-08	-2.7937e-07	-2.0499e-07	-3.2958e-08	-2.3795e-07	-1.9113e-07	-3.8794e-08	-2.2993e-07	-1.5565e-07	-3.2977e-08	-1.8862e-07	-3.8388e-07	-6.9575e-08	-4.5345e-07	-3.1058e-08	1.0225e-08	-2.0833e-08	-2.7952e-07	-5.191e-08	-3.3143e-07	-1.0654e-07	-7.8291e-08	-1.8483e-07	-1.7005e-07	-1.4609e-07	-3.1614e-07	-1.1015e-07	-8.9146e-08	-1.993e-07	-8.0324e-08	-5.0976e-08	-1.313e-07
-3.7316e-07	-2.1636e-07	-5.8953e-07	-2.7452e-07	1.6189e-08	-2.5833e-07	-5.3169e-07	-1.5327e-07	-6.8496e-07	-4.1688e-07	-1.9684e-07	-6.1372e-07	2.4592e-08	5.466e-08	7.9253e-08	3.8122e-08	-6.0132e-08	-2.201e-08	-1.1564e-07	-1.3043e-07	-2.4606e-07	2.0826e-07	7.732e-08	2.8558e-07	-5.6508e-07	-1.5082e-07	-7.1589e-07	-2.412e-07	-5.2493e-08	-2.937e-07	-2.1541e-07	-3.5132e-08	-2.5054e-07	-2.0047e-07	-4.1098e-08	-2.4157e-07	-1.6299e-07	-3.5271e-08	-1.9826e-07	-4.0329e-07	-7.3239e-08	-4.7653e-07	-3.2463e-08	1.083e-08	-2.1633e-08	-2.9332e-07	-5.4765e-08	-3.4809e-07	-1.1115e-07	-8.2579e-08	-1.9373e-07	-1.7754e-07	-1.5401e-07	-3.3155e-07	-1.1473e-07	-9.4069e-08	-2.088e-07	-8.3835e-08	-5.3855e-08	-1.3769e-07
-3.9182e-07	-2.2762e-07	-6.1945e-07	-2.8743e-07	1.6533e-08	-2.709e-07	-5.5736e-07	-1.6149e-07	-7.1885e-07	-4.3652e-07	-2.0631e-07	-6.4283e-07	2.5501e-08	5.7334e-08	8.2834e-08	3.992e-08	-6.3326e-08	-2.3405e-08	-1.2089e-07	-1.3664e-07	-2.5754e-07	2.191e-07	8.0915e-08	3.0002e-07	-5.9202e-07	-1.5827e-07	-7.5029e-07	-2.5288e-07	-5.5139e-08	-3.0802e-07	-2.2581e-07	-3.7318e-08	-2.6312e-07	-2.0978e-07	-4.3409e-08	-2.5319e-07	-1.703e-07	-3.7582e-08	-2.0788e-07	-4.2267e-07	-7.6903e-08	-4.9958e-07	-3.386e-08	1.1437e-08	-2.2423e-08	-3.0709e-07	-5.7622e-08	-3.6471e-07	-1.1573e-07	-8.687e-08	-2.0261e-07	-1.8497e-07	-1.6193e-07	-3.469e-07	-1.1927e-07	-9.8998e-08	-2.1827e-07	-8.7323e-08	-5.6737e-08	-1.4406e-07
-4.1048e-07	-2.389e-07	-6.4937e-07	-3.0031e-07	1.6861e-08	-2.8345e-07	-5.8299e-07	-1.6973e-07	-7.5272e-07	-4.5612e-07	-2.1577e-07	-6.7189e-07	2.6397e-08	6.0004e-08	8.6401e-08	4.1712e-08	-6.6523e-08	-2.481e-08	-1.2612e-07	-1.4285e-07	-2.6897e-07	2.2996e-07	8.4499e-08	3.1445e-07	-6.1891e-07	-1.6572e-07	-7.8462e-07	-2.6454e-07	-5.7785e-08	-3.2233e-07	-2.3619e-07	-3.9516e-08	-2.757e-07	-2.1906e-07	-4.5726e-08	-2.6478e-07	-1.7758e-07	-3.991e-08	-2.1749e-07	-4.4201e-07	-8.0564e-08	-5.2258e-07	-3.525e-08	1.2047e-08	-2.3202e-08	-3.2082e-07	-6.0481e-08	-3.813e-07	-1.2029e-07	-9.1164e-08	-2.1145e-07	-1.9235e-07	-1.6986e-07	-3.6221e-07	-1.2376e-07	-1.0393e-07	-2.2769e-07	-9.0789e-08	-5.9623e-08	-1.5041e-07
-4.2912e-07	-2.5018e-07	-6.793e-07	-3.1315e-07	1.7172e-08	-2.9598e-07	-6.0857e-07	-1.7799e-07	-7.8656e-07	-4.7566e-07	-2.2521e-07	-7.0087e-07	2.7282e-08	6.2671e-08	8.9953e-08	4.3497e-08	-6.9723e-08	-2.6226e-08	-1.3133e-07	-1.4904e-07	-2.8037e-07	2.4082e-07	8.8072e-08	3.2889e-07	-6.4574e-07	-1.7316e-07	-8.189e-07	-2.7619e-07	-6.0432e-08	-3.3662e-07	-2.4655e-07	-4.1727e-08	-2.8827e-07	-2.2831e-07	-4.805e-08	-2.7636e-07	-1.8482e-07	-4.2254e-08	-2.2707e-07	-4.6132e-07	-8.4223e-08	-5.4554e-07	-3.6631e-08	1.2659e-08	-2.3972e-08	-3.3452e-07	-6.3342e-08	-3.9786e-07	-1.248e-07	-9.5461e-08	-2.2026e-07	-1.9968e-07	-1.7778e-07	-3.7746e-07	-1.2822e-07	-1.0887e-07	-2.3709e-07	-9.4232e-08	-6.2512e-08	-1.5674e-07
-4.4776e-07	-2.6147e-07	-7.0923e-07	-3.2596e-07	1.7466e-08	-3.0849e-07	-6.341e-07	-1.8626e-07	-8.2036e-07	-4.9516e-07	-2.3463e-07	-7.2979e-07	2.8155e-08	6.5334e-08	9.3489e-08	4.5274e-08	-7.2926e-08	-2.7652e-08	-1.3653e-07	-1.5521e-07	-2.9174e-07	2.5169e-07	9.1634e-08	3.4333e-07	-6.7251e-07	-1.806e-07	-8.5311e-07	-2.8783e-07	-6.308e-08	-3.5091e-07	-2.5689e-07	-4.3949e-08	-3.0084e-07	-2.3753e-07	-5.0381e-08	-2.8791e-07	-1.9203e-07	-4.4614e-08	-2.3664e-07	-4.8058e-07	-8.788e-08	-5.6846e-07	-3.8004e-08	1.3274e-08	-2.473e-08	-3.4818e-07	-6.6204e-08	-4.1438e-07	-1.2929e-07	-9.9761e-08	-2.2905e-07	-2.0695e-07	-1.8571e-07	-3.9266e-07	-1.3263e-07	-1.1381e-07	-2.4644e-07	-9.7653e-08	-6.5404e-08	-1.6306e-07
-4.6638e-07	-2.7277e-07	-7.3915e-07	-3.3873e-07	1.7743e-08	-3.2099e-07	-6.5959e-07	-1.9455e-07	-8.5414e-07	-5.1459e-07	-2.4404e-07	-7.5863e-07	2.9016e-08	6.7993e-08	9.701e-08	4.7043e-08	-7.6132e-08	-2.9088e-08	-1.4169e-07	-1.6137e-07	-3.0307e-07	2.6258e-07	9.5184e-08	3.5776e-07	-6.9922e-07	-1.8803e-07	-8.8726e-07	-2.9945e-07	-6.5728e-08	-3.6518e-07	-2.6721e-07	-4.6183e-08	-3.1339e-07	-2.4672e-07	-5.2717e-08	-2.9943e-07	-1.992e-07	-4.699e-08	-2.4619e-07	-4.9979e-07	-9.1533e-08	-5.9133e-07	-3.9369e-08	1.389e-08	-2.5479e-08	-3.618e-07	-6.9067e-08	-4.3087e-07	-1.3374e-07	-1.0406e-07	-2.378e-07	-2.1416e-07	-1.9364e-07	-4.078e-07	-1.37e-07	-1.1876e-07	-2.5576e-07	-1.0105e-07	-6.8298e-08	-1.6935e-07
-4.85e-07	-2.8408e-07	-7.6907e-07	-3.5147e-07	1.8003e-08	-3.3346e-07	-6.8503e-07	-2.0285e-07	-8.8787e-07	-5.3398e-07	-2.5343e-07	-7.8741e-07	2.9865e-08	7.0649e-08	1.0051e-07	4.8805e-08	-7.934e-08	-3.0535e-08	-1.4684e-07	-1.6752e-07	-3.1436e-07	2.7347e-07	9.8723e-08	3.7219e-07	-7.2587e-07	-1.9546e-07	-9.2133e-07	-3.1106e-07	-6.8377e-08	-3.7944e-07	-2.7751e-07	-4.8429e-08	-3.2594e-07	-2.5587e-07	-5.5059e-08	-3.1093e-07	-2.0633e-07	-4.9381e-08	-2.5572e-07	-5.1897e-07	-9.5184e-08	-6.1415e-07	-4.0726e-08	1.451e-08	-2.6216e-08	-3.7539e-07	-7.1931e-08	-4.4732e-07	-1.3816e-07	-1.0837e-07	-2.4652e-07	-2.2132e-07	-2.0157e-07	-4.2289e-07	-1.4132e-07	-1.2371e-07	-2.6503e-07	-1.0442e-07	-7.1195e-08	-1.7562e-07
-5.036e-07	-2.9539e-07	-7.9899e-07	-3.6417e-07	1.8246e-08	-3.4592e-07	-7.1041e-07	-2.1116e-07	-9.2157e-07	-5.5331e-07	-2.628e-07	-8.161e-07	3.0702e-08	7.33e-08	1.04e-07	5.0558e-08	-8.255e-08	-3.1992e-08	-1.5197e-07	-1.7364e-07	-3.2561e-07	2.8437e-07	1.0225e-07	3.8662e-07	-7.5246e-07	-2.0288e-07	-9.5534e-07	-3.2266e-07	-7.1026e-08	-3.9368e-07	-2.8779e-07	-5.0685e-08	-3.3847e-07	-2.6499e-07	-5.7408e-08	-3.224e-07	-2.1343e-07	-5.1788e-08	-2.6522e-07	-5.3809e-07	-9.8831e-08	-6.3693e-07	-4.2075e-08	1.5131e-08	-2.6944e-08	-3.8894e-07	-7.4796e-08	-4.6374e-07	-1.4254e-07	-1.1267e-07	-2.5521e-07	-2.2842e-07	-2.095e-07	-4.3792e-07	-1.456e-07	-1.2867e-07	-2.7427e-07	-1.0778e-07	-7.4093e-08	-1.8187e-07
-5.2219e-07	-3.0671e-07	-8.289e-07	-3.7683e-07	1.8472e-08	-3.5836e-07	-7.3574e-07	-2.1948e-07	-9.5523e-07	-5.7258e-07	-2.7214e-07	-8.4472e-07	3.1526e-08	7.5947e-08	1.0747e-07	5.2302e-08	-8.5762e-08	-3.3459e-08	-1.5707e-07	-1.7975e-07	-3.3682e-07	2.9528e-07	1.0576e-07	4.0104e-07	-7.7898e-07	-2.103e-07	-9.8928e-07	-3.3424e-07	-7.3675e-08	-4.0792e-07	-2.9804e-07	-5.2953e-08	-3.51e-07	-2.7408e-07	-5.9761e-08	-3.3385e-07	-2.205e-07	-5.421e-08	-2.7471e-07	-5.5717e-07	-1.0248e-07	-6.5965e-07	-4.3415e-08	1.5755e-08	-2.766e-08	-4.0245e-07	-7.7662e-08	-4.8011e-07	-1.4689e-07	-1.1698e-07	-2.6386e-07	-2.3546e-07	-2.1743e-07	-4.5289e-07	-1.4984e-07	-1.3362e-07	-2.8347e-07	-1.111e-07	-7.6994e-08	-1.881e-07
-5.4076e-07	-3.1804e-07	-8.588e-07	-3.8945e-07	1.868e-08	-3.7077e-07	-7.6102e-07	-2.2782e-07	-9.8884e-07	-5.9179e-07	-2.8147e-07	-8.7327e-07	3.2338e-08	7.8589e-08	1.1093e-07	5.4038e-08	-8.8975e-08	-3.4937e-08	-1.6215e-07	-1.8584e-07	-3.4799e-07	3.062e-07	1.0927e-07	4.1546e-07	-8.0543e-07	-2.1771e-07	-1.0231e-06	-3.4581e-07	-7.6324e-08	-4.2213e-07	-3.0827e-07	-5.5232e-08	-3.6351e-07	-2.8314e-07	-6.212e-08	-3.4526e-07	-2.2752e-07	-5.6647e-08	-2.8417e-07	-5.7621e-07	-1.0612e-07	-6.8232e-07	-4.4747e-08	1.638e-08	-2.8366e-08	-4.1592e-07	-8.0528e-08	-4.9645e-07	-1.512e-07	-1.2128e-07	-2.7248e-07	-2.4244e-07	-2.2536e-07	-4.678e-07	-1.5404e-07	-1.3858e-07	-2.9262e-07	-1.1441e-07	-7.9895e-08	-1.943e-07
-5.5931e-07	-3.2937e-07	-8.8869e-07	-4.0204e-07	1.8872e-08	-3.8317e-07	-7.8624e-07	-2.3617e-07	-1.0224e-06	-6.1094e-07	-2.9078e-07	-9.0173e-07	3.3138e-08	8.1227e-08	1.1436e-07	5.5765e-08	-9.219e-08	-3.6424e-08	-1.672e-07	-1.9192e-07	-3.5912e-07	3.1712e-07	1.1276e-07	4.2988e-07	-8.3181e-07	-2.2511e-07	-1.0569e-06	-3.5736e-07	-7.8973e-08	-4.3633e-07	-3.1848e-07	-5.7521e-08	-3.76e-07	-2.9216e-07	-6.4485e-08	-3.5664e-07	-2.3451e-07	-5.91e-08	-2.9361e-07	-5.9519e-07	-1.0975e-07	-7.0494e-07	-4.607e-08	1.7008e-08	-2.9062e-08	-4.2935e-07	-8.3393e-08	-5.1274e-07	-1.5548e-07	-1.2559e-07	-2.8107e-07	-2.4937e-07	-2.3328e-07	-4.8265e-07	-1.5819e-07	-1.4355e-07	-3.0174e-07	-1.1769e-07	-8.2798e-08	-2.0049e-07
-5.7785e-07	-3.4071e-07	-9.1856e-07	-4.1458e-07	1.9045e-08	-3.9554e-07	-8.114e-07	-2.4453e-07	-1.0559e-06	-6.3003e-07	-3.0007e-07	-9.301e-07	3.3924e-08	8.3859e-08	1.1778e-07	5.7483e-08	-9.5405e-08	-3.7922e-08	-1.7224e-07	-1.9798e-07	-3.7021e-07	3.2805e-07	1.1623e-07	4.4428e-07	-8.5812e-07	-2.325e-07	-1.0906e-06	-3.6889e-07	-8.1622e-08	-4.5051e-07	-3.2866e-07	-5.982e-08	-3.8848e-07	-3.0114e-07	-6.6854e-08	-3.6799e-07	-2.4145e-07	-6.1566e-08	-3.0302e-07	-6.1411e-07	-1.1338e-07	-7.275e-07	-4.7385e-08	1.7639e-08	-2.9746e-08	-4.4273e-07	-8.6259e-08	-5.2899e-07	-1.5973e-07	-1.299e-07	-2.8962e-07	-2.5623e-07	-2.4121e-07	-4.9743e-07	-1.623e-07	-1.4851e-07	-3.1081e-07	-1.2095e-07	-8.5702e-08	-2.0665e-07
-5.9637e-07	-3.5205e-07	-9.4842e-07	-4.2709e-07	1.9202e-08	-4.0788e-07	-8.365e-07	-2.529e-07	-1.0894e-06	-6.4906e-07	-3.0933e-07	-9.5839e-07	3.4698e-08	8.6487e-08	1.2118e-07	5.9191e-08	-9.8621e-08	-3.943e-08	-1.7725e-07	-2.0401e-07	-3.8126e-07	3.3898e-07	1.197e-07	4.5868e-07	-8.8436e-07	-2.3989e-07	-1.1242e-06	-3.8041e-07	-8.427e-08	-4.6468e-07	-3.3882e-07	-6.213e-08	-4.0095e-07	-3.1009e-07	-6.9227e-08	-3.7931e-07	-2.4836e-07	-6.4047e-08	-3.1241e-07	-6.3299e-07	-1.1701e-07	-7.5e-07	-4.8692e-08	1.8271e-08	-3.042e-08	-4.5608e-07	-8.9124e-08	-5.452e-07	-1.6394e-07	-1.342e-07	-2.9814e-07	-2.6303e-07	-2.4913e-07	-5.1216e-07	-1.6636e-07	-1.5348e-07	-3.1984e-07	-1.2418e-07	-8.8606e-08	-2.1279e-07
-6.1486e-07	-3.6339e-07	-9.7826e-07	-4.3955e-07	1.934e-08	-4.2021e-07	-8.6153e-07	-2.6129e-07	-1.1228e-06	-6.6802e-07	-3.1858e-07	-9.866e-07	3.5458e-08	8.9109e-08	1.2457e-07	6.089e-08	-1.0184e-07	-4.0948e-08	-1.8223e-07	-2.1003e-07	-3.9226e-07	3.4992e-07	1.2315e-07	4.7307e-07	-9.1052e-07	-2.4726e-07	-1.1578e-06	-3.9191e-07	-8.6918e-08	-4.7883e-07	-3.4895e-07	-6.445e-08	-4.134e-07	-3.19e-07	-7.1606e-08	-3.906e-07	-2.5523e-07	-6.6543e-08	-3.2177e-07	-6.5181e-07	-1.2063e-07	-7.7244e-07	-4.999e-08	1.8906e-08	-3.1084e-08	-4.6938e-07	-9.1989e-08	-5.6136e-07	-1.6811e-07	-1.3851e-07	-3.0662e-07	-2.6977e-07	-2.5705e-07	-5.2681e-07	-1.7038e-07	-1.5845e-07	-3.2882e-07	-1.2739e-07	-9.151e-08	-2.189e-07
-6.3334e-07	-3.7474e-07	-1.0081e-06	-4.5196e-07	1.9462e-08	-4.325e-07	-8.8651e-07	-2.6968e-07	-1.1562e-06	-6.8692e-07	-3.2779e-07	-1.0147e-06	3.6206e-08	9.1726e-08	1.2793e-07	6.2578e-08	-1.0505e-07	-4.2476e-08	-1.8719e-07	-2.1603e-07	-4.0322e-07	3.6087e-07	1.2659e-07	4.8745e-07	-9.3661e-07	-2.5463e-07	-1.1912e-06	-4.034e-07	-8.9565e-08	-4.9296e-07	-3.5905e-07	-6.6779e-08	-4.2583e-07	-3.2787e-07	-7.3988e-08	-4.0185e-07	-2.6205e-07	-6.9052e-08	-3.311e-07	-6.7058e-07	-1.2425e-07	-7.9482e-07	-5.1279e-08	1.9543e-08	-3.1736e-08	-4.8263e-07	-9.4852e-08	-5.7748e-07	-1.7225e-07	-1.4282e-07	-3.1507e-07	-2.7645e-07	-2.6496e-07	-5.4141e-07	-1.7435e-07	-1.6341e-07	-3.3777e-07	-1.3058e-07	-9.4414e-08	-2.2499e-07
-6.5179e-07	-3.8608e-07	-1.0379e-06	-4.6434e-07	1.9565e-08	-4.4477e-07	-9.1141e-07	-2.7808e-07	-1.1895e-06	-7.0575e-07	-3.3699e-07	-1.0427e-06	3.694e-08	9.4337e-08	1.3128e-07	6.4257e-08	-1.0827e-07	-4.4013e-08	-1.9212e-07	-2.2201e-07	-4.1413e-07	3.7181e-07	1.3001e-07	5.0182e-07	-9.6262e-07	-2.6199e-07	-1.2246e-06	-4.1486e-07	-9.2212e-08	-5.0707e-07	-3.6912e-07	-6.9118e-08	-4.3824e-07	-3.367e-07	-7.6375e-08	-4.1307e-07	-2.6884e-07	-7.1575e-08	-3.4041e-07	-6.8928e-07	-1.2786e-07	-8.1714e-07	-5.256e-08	2.0182e-08	-3.2378e-08	-4.9584e-07	-9.7715e-08	-5.9356e-07	-1.7636e-07	-1.4712e-07	-3.2348e-07	-2.8306e-07	-2.7287e-07	-5.5593e-07	-1.7828e-07	-1.6838e-07	-3.4666e-07	-1.3374e-07	-9.7318e-08	-2.3106e-07
-6.7022e-07	-3.9743e-07	-1.0677e-06	-4.7667e-07	1.9651e-08	-4.5702e-07	-9.3625e-07	-2.8649e-07	-1.2227e-06	-7.2451e-07	-3.4616e-07	-1.0707e-06	3.7661e-08	9.6942e-08	1.346e-07	6.5925e-08	-1.1149e-07	-4.5561e-08	-1.9703e-07	-2.2796e-07	-4.2499e-07	3.8276e-07	1.3342e-07	5.1618e-07	-9.8855e-07	-2.6933e-07	-1.2579e-06	-4.2631e-07	-9.4858e-08	-5.2117e-07	-3.7916e-07	-7.1466e-08	-4.5063e-07	-3.4549e-07	-7.8765e-08	-4.2425e-07	-2.7558e-07	-7.4112e-08	-3.4969e-07	-7.0793e-07	-1.3146e-07	-8.394e-07	-5.3833e-08	2.0823e-08	-3.301e-08	-5.0901e-07	-1.0058e-07	-6.0958e-07	-1.8043e-07	-1.5142e-07	-3.3185e-07	-2.8961e-07	-2.8077e-07	-5.7039e-07	-1.8216e-07	-1.7336e-07	-3.5552e-07	-1.3688e-07	-1.0022e-07	-2.371e-07
-6.8863e-07	-4.0878e-07	-1.0974e-06	-4.8895e-07	1.9719e-08	-4.6923e-07	-9.6102e-07	-2.949e-07	-1.2559e-06	-7.432e-07	-3.5531e-07	-1.0985e-06	3.8368e-08	9.9541e-08	1.3791e-07	6.7582e-08	-1.147e-07	-4.7118e-08	-2.0191e-07	-2.339e-07	-4.3581e-07	3.9372e-07	1.3681e-07	5.3053e-07	-1.0144e-06	-2.7667e-07	-1.2911e-06	-4.3774e-07	-9.7503e-08	-5.3524e-07	-3.8917e-07	-7.3824e-08	-4.63e-07	-3.5424e-07	-8.1159e-08	-4.354e-07	-2.8228e-07	-7.6662e-08	-3.5894e-07	-7.2652e-07	-1.3506e-07	-8.6158e-07	-5.5096e-08	2.1466e-08	-3.363e-08	-5.2212e-07	-1.0344e-07	-6.2556e-07	-1.8446e-07	-1.5573e-07	-3.4019e-07	-2.961e-07	-2.8867e-07	-5.8477e-07	-1.86e-07	-1.7833e-07	-3.6432e-07	-1.4e-07	-1.0312e-07	-2.4312e-07
-7.07e-07	-4.2013e-07	-1.1271e-06	-5.0119e-07	1.9769e-08	-4.8142e-07	-9.8572e-07	-3.0333e-07	-1.289e-06	-7.6182e-07	-3.6443e-07	-1.1262e-06	3.9062e-08	1.0213e-07	1.412e-07	6.9229e-08	-1.1791e-07	-4.8685e-08	-2.0677e-07	-2.3981e-07	-4.4658e-07	4.0467e-07	1.402e-07	5.4487e-07	-1.0402e-06	-2.84e-07	-1.3242e-06	-4.4915e-07	-1.0015e-07	-5.493e-07	-3.9916e-07	-7.619e-08	-4.7535e-07	-3.6295e-07	-8.3557e-08	-4.4651e-07	-2.8893e-07	-7.9225e-08	-3.6816e-07	-7.4505e-07	-1.3866e-07	-8.837e-07	-5.6352e-08	2.2112e-08	-3.424e-08	-5.3519e-07	-1.0629e-07	-6.4149e-07	-1.8846e-07	-1.6003e-07	-3.4849e-07	-3.0252e-07	-2.9656e-07	-5.9909e-07	-1.8979e-07	-1.833e-07	-3.7308e-07	-1.4309e-07	-1.0602e-07	-2.4912e-07
-7.2535e-07	-4.3147e-07	-1.1568e-06	-5.1338e-07	1.9801e-08	-4.9358e-07	-1.0103e-06	-3.1176e-07	-1.3221e-06	-7.8037e-07	-3.7352e-07	-1.1539e-06	3.9743e-08	1.0472e-07	1.4446e-07	7.0865e-08	-1.2113e-07	-5.0261e-08	-2.116e-07	-2.457e-07	-4.573e-07	4.1563e-07	1.4356e-07	5.5919e-07	-1.0658e-06	-2.9131e-07	-1.3571e-06	-4.6054e-07	-1.0279e-07	-5.6333e-07	-4.0911e-07	-7.8565e-08	-4.8767e-07	-3.7162e-07	-8.5958e-08	-4.5758e-07	-2.9554e-07	-8.1801e-08	-3.7734e-07	-7.6351e-07	-1.4224e-07	-9.0575e-07	-5.7598e-08	2.2759e-08	-3.4839e-08	-5.4821e-07	-1.0915e-07	-6.5736e-07	-1.9242e-07	-1.6432e-07	-3.5674e-07	-3.0888e-07	-3.0445e-07	-6.1333e-07	-1.9353e-07	-1.8827e-07	-3.818e-07	-1.4616e-07	-1.0892e-07	-2.5508e-07
-7.4368e-07	-4.4281e-07	-1.1865e-06	-5.2553e-07	1.9815e-08	-5.0571e-07	-1.0349e-06	-3.2019e-07	-1.3551e-06	-7.9885e-07	-3.8259e-07	-1.1814e-06	4.0409e-08	1.073e-07	1.4771e-07	7.249e-08	-1.2434e-07	-5.1848e-08	-2.1641e-07	-2.5157e-07	-4.6798e-07	4.2658e-07	1.4691e-07	5.735e-07	-1.0914e-06	-2.9862e-07	-1.39e-06	-4.7192e-07	-1.0543e-07	-5.7735e-07	-4.1903e-07	-8.0948e-08	-4.9997e-07	-3.8025e-07	-8.8362e-08	-4.6861e-07	-3.0211e-07	-8.439e-08	-3.865e-07	-7.8191e-07	-1.4582e-07	-9.2773e-07	-5.8836e-08	2.3409e-08	-3.5427e-08	-5.6119e-07	-1.12e-07	-6.7319e-07	-1.9635e-07	-1.6862e-07	-3.6497e-07	-3.1517e-07	-3.1232e-07	-6.275e-07	-1.9723e-07	-1.9323e-07	-3.9046e-07	-1.492e-07	-1.1182e-07	-2.6102e-07
-7.6197e-07	-4.5415e-07	-1.2161e-06	-5.3762e-07	1.9812e-08	-5.1781e-07	-1.0594e-06	-3.2864e-07	-1.388e-06	-8.1725e-07	-3.9163e-07	-1.2089e-06	4.1061e-08	1.0987e-07	1.5094e-07	7.4103e-08	-1.2755e-07	-5.3443e-08	-2.2118e-07	-2.5742e-07	-4.786e-07	4.3754e-07	1.5025e-07	5.8779e-07	-1.1169e-06	-3.0591e-07	-1.4228e-06	-4.8327e-07	-1.0807e-07	-5.9134e-07	-4.2891e-07	-8.334e-08	-5.1225e-07	-3.8883e-07	-9.0769e-08	-4.796e-07	-3.0863e-07	-8.6991e-08	-3.9562e-07	-8.0025e-07	-1.4939e-07	-9.4964e-07	-6.0065e-08	2.406e-08	-3.6005e-08	-5.7411e-07	-1.1486e-07	-6.8896e-07	-2.0024e-07	-1.7291e-07	-3.7315e-07	-3.214e-07	-3.2019e-07	-6.4159e-07	-2.0088e-07	-1.982e-07	-3.9908e-07	-1.5222e-07	-1.1472e-07	-2.6694e-07
-7.8023e-07	-4.6549e-07	-1.2457e-06	-5.4967e-07	1.979e-08	-5.2988e-07	-1.0838e-06	-3.3708e-07	-1.4209e-06	-8.3557e-07	-4.0064e-07	-1.2362e-06	4.17e-08	1.1244e-07	1.5414e-07	7.5705e-08	-1.3075e-07	-5.5048e-08	-2.2593e-07	-2.6324e-07	-4.8917e-07	4.4849e-07	1.5357e-07	6.0206e-07	-1.1423e-06	-3.1319e-07	-1.4555e-06	-4.946e-07	-1.1071e-07	-6.0531e-07	-4.3876e-07	-8.5739e-08	-5.245e-07	-3.9737e-07	-9.3178e-08	-4.9055e-07	-3.1511e-07	-8.9605e-08	-4.0471e-07	-8.1851e-07	-1.5296e-07	-9.7147e-07	-6.1286e-08	2.4714e-08	-3.6572e-08	-5.8698e-07	-1.177e-07	-7.0469e-07	-2.0409e-07	-1.772e-07	-3.8129e-07	-3.2756e-07	-3.2806e-07	-6.5561e-07	-2.0449e-07	-2.0317e-07	-4.0765e-07	-1.5522e-07	-1.1761e-07	-2.7283e-07
-7.9846e-07	-4.7682e-07	-1.2753e-06	-5.6167e-07	1.975e-08	-5.4192e-07	-1.1081e-06	-3.4554e-07	-1.4536e-06	-8.5382e-07	-4.0962e-07	-1.2634e-06	4.2324e-08	1.15e-07	1.5732e-07	7.7295e-08	-1.3396e-07	-5.6663e-08	-2.3066e-07	-2.6904e-07	-4.9969e-07	4.5945e-07	1.5688e-07	6.1632e-07	-1.1677e-06	-3.2046e-07	-1.4881e-06	-5.0591e-07	-1.1335e-07	-6.1926e-07	-4.4858e-07	-8.8146e-08	-5.3673e-07	-4.0586e-07	-9.559e-08	-5.0145e-07	-3.2154e-07	-9.223e-08	-4.1377e-07	-8.3671e-07	-1.5652e-07	-9.9323e-07	-6.2498e-08	2.5369e-08	-3.7128e-08	-5.998e-07	-1.2055e-07	-7.2035e-07	-2.079e-07	-1.8149e-07	-3.8939e-07	-3.3365e-07	-3.3591e-07	-6.6956e-07	-2.0804e-07	-2.0813e-07	-4.1618e-07	-1.5819e-07	-1.205e-07	-2.7869e-07
-8.1665e-07	-4.8815e-07	-1.3048e-06	-5.7361e-07	1.9693e-08	-5.5392e-07	-1.1323e-06	-3.5399e-07	-1.4863e-06	-8.7199e-07	-4.1858e-07	-1.2906e-06	4.2934e-08	1.1755e-07	1.6049e-07	7.8873e-08	-1.3716e-07	-5.8286e-08	-2.3535e-07	-2.7481e-07	-5.1016e-07	4.704e-07	1.6017e-07	6.3056e-07	-1.1929e-06	-3.2771e-07	-1.5206e-06	-5.172e-07	-1.1598e-07	-6.3318e-07	-4.5836e-07	-9.0561e-08	-5.4893e-07	-4.1431e-07	-9.8004e-08	-5.1232e-07	-3.2792e-07	-9.4868e-08	-4.2279e-07	-8.5485e-07	-1.6007e-07	-1.0149e-06	-6.3701e-08	2.6027e-08	-3.7674e-08	-6.1257e-07	-1.2339e-07	-7.3596e-07	-2.1168e-07	-1.8577e-07	-3.9745e-07	-3.3967e-07	-3.4375e-07	-6.8342e-07	-2.1155e-07	-2.1309e-07	-4.2465e-07	-1.6113e-07	-1.2339e-07	-2.8452e-07
-8.3481e-07	-4.9947e-07	-1.3343e-06	-5.8551e-07	1.9617e-08	-5.6589e-07	-1.1565e-06	-3.6245e-07	-1.519e-06	-8.9008e-07	-4.275e-07	-1.3176e-06	4.353e-08	1.201e-07	1.6363e-07	8.0439e-08	-1.4036e-07	-5.9919e-08	-2.4002e-07	-2.8056e-07	-5.2058e-07	4.8135e-07	1.6344e-07	6.4479e-07	-1.218e-06	-3.3495e-07	-1.553e-06	-5.2847e-07	-1.1861e-07	-6.4708e-07	-4.6811e-07	-9.2983e-08	-5.6109e-07	-4.2272e-07	-1.0042e-07	-5.2314e-07	-3.3426e-07	-9.7516e-08	-4.3178e-07	-8.7291e-07	-1.6361e-07	-1.0365e-06	-6.4896e-08	2.6687e-08	-3.8209e-08	-6.2529e-07	-1.2623e-07	-7.5152e-07	-2.1543e-07	-1.9004e-07	-4.0547e-07	-3.4563e-07	-3.5158e-07	-6.9721e-07	-2.1502e-07	-2.1805e-07	-4.3307e-07	-1.6406e-07	-1.2627e-07	-2.9033e-07
-8.5294e-07	-5.1079e-07	-1.3637e-06	-5.9735e-07	1.9523e-08	-5.7783e-07	-1.1806e-06	-3.7092e-07	-1.5515e-06	-9.0809e-07	-4.364e-07	-1.3445e-06	4.4111e-08	1.2263e-07	1.6674e-07	8.1992e-08	-1.4355e-07	-6.1561e-08	-2.4466e-07	-2.8628e-07	-5.3094e-07	4.9229e-07	1.667e-07	6.5899e-07	-1.243e-06	-3.4218e-07	-1.5852e-06	-5.3972e-07	-1.2124e-07	-6.6096e-07	-4.7782e-07	-9.5412e-08	-5.7323e-07	-4.3108e-07	-1.0284e-07	-5.3391e-07	-3.4055e-07	-1.0018e-07	-4.4073e-07	-8.909e-07	-1.6714e-07	-1.058e-06	-6.6082e-08	2.7348e-08	-3.8734e-08	-6.3795e-07	-1.2907e-07	-7.6702e-07	-2.1913e-07	-1.9432e-07	-4.1345e-07	-3.5152e-07	-3.594e-07	-7.1092e-07	-2.1843e-07	-2.2301e-07	-4.4144e-07	-1.6695e-07	-1.2916e-07	-2.9611e-07
-8.7103e-07	-5.2209e-07	-1.3931e-06	-6.0915e-07	1.9411e-08	-5.8973e-07	-1.2046e-06	-3.7938e-07	-1.584e-06	-9.2602e-07	-4.4526e-07	-1.3713e-06	4.4677e-08	1.2516e-07	1.6984e-07	8.3533e-08	-1.4675e-07	-6.3212e-08	-2.4927e-07	-2.9198e-07	-5.4125e-07	5.0323e-07	1.6994e-07	6.7318e-07	-1.268e-06	-3.4939e-07	-1.6174e-06	-5.5094e-07	-1.2387e-07	-6.7481e-07	-4.8749e-07	-9.7848e-08	-5.8534e-07	-4.3939e-07	-1.0526e-07	-5.4464e-07	-3.4679e-07	-1.0285e-07	-4.4964e-07	-9.0881e-07	-1.7066e-07	-1.0795e-06	-6.7259e-08	2.8012e-08	-3.9247e-08	-6.5056e-07	-1.319e-07	-7.8246e-07	-2.228e-07	-1.9859e-07	-4.2139e-07	-3.5734e-07	-3.6721e-07	-7.2455e-07	-2.218e-07	-2.2796e-07	-4.4976e-07	-1.6983e-07	-1.3203e-07	-3.0186e-07
-8.8908e-07	-5.3339e-07	-1.4225e-06	-6.2088e-07	1.9281e-08	-6.016e-07	-1.2285e-06	-3.8785e-07	-1.6163e-06	-9.4386e-07	-4.541e-07	-1.398e-06	4.5229e-08	1.2769e-07	1.7291e-07	8.5062e-08	-1.4993e-07	-6.4872e-08	-2.5385e-07	-2.9765e-07	-5.515e-07	5.1417e-07	1.7317e-07	6.8734e-07	-1.2928e-06	-3.5659e-07	-1.6494e-06	-5.6214e-07	-1.265e-07	-6.8864e-07	-4.9713e-07	-1.0029e-07	-5.9742e-07	-4.4765e-07	-1.0768e-07	-5.5533e-07	-3.5299e-07	-1.0553e-07	-4.5852e-07	-9.2665e-07	-1.7418e-07	-1.1008e-06	-6.8428e-08	2.8677e-08	-3.9751e-08	-6.6311e-07	-1.3473e-07	-7.9784e-07	-2.2643e-07	-2.0285e-07	-4.2928e-07	-3.6308e-07	-3.7501e-07	-7.3809e-07	-2.2512e-07	-2.3291e-07	-4.5804e-07	-1.7268e-07	-1.3491e-07	-3.0758e-07
-9.0709e-07	-5.4469e-07	-1.4518e-06	-6.3257e-07	1.9133e-08	-6.1344e-07	-1.2523e-06	-3.9632e-07	-1.6486e-06	-9.6162e-07	-4.629e-07	-1.4245e-06	4.5766e-08	1.302e-07	1.7596e-07	8.6577e-08	-1.5312e-07	-6.654e-08	-2.584e-07	-3.033e-07	-5.6169e-07	5.251e-07	1.7638e-07	7.0148e-07	-1.3176e-06	-3.6378e-07	-1.6813e-06	-5.7332e-07	-1.2913e-07	-7.0245e-07	-5.0673e-07	-1.0274e-07	-6.0947e-07	-4.5587e-07	-1.101e-07	-5.6597e-07	-3.5913e-07	-1.0822e-07	-4.6735e-07	-9.4442e-07	-1.7769e-07	-1.1221e-06	-6.9588e-08	2.9345e-08	-4.0244e-08	-6.7561e-07	-1.3756e-07	-8.1317e-07	-2.3003e-07	-2.0711e-07	-4.3714e-07	-3.6876e-07	-3.8279e-07	-7.5155e-07	-2.2839e-07	-2.3786e-07	-4.6626e-07	-1.755e-07	-1.3778e-07	-3.1328e-07
-9.2507e-07	-5.5597e-07	-1.481e-06	-6.442e-07	1.8966e-08	-6.2523e-07	-1.276e-06	-4.0479e-07	-1.6808e-06	-9.7929e-07	-4.7167e-07	-1.451e-06	4.6288e-08	1.327e-07	1.7899e-07	8.808e-08	-1.563e-07	-6.8218e-08	-2.6292e-07	-3.0891e-07	-5.7183e-07	5.3603e-07	1.7957e-07	7.156e-07	-1.3422e-06	-3.7095e-07	-1.7131e-06	-5.8448e-07	-1.3175e-07	-7.1622e-07	-5.1628e-07	-1.0519e-07	-6.2148e-07	-4.6403e-07	-1.1252e-07	-5.7655e-07	-3.6522e-07	-1.1093e-07	-4.7615e-07	-9.6211e-07	-1.8118e-07	-1.1433e-06	-7.074e-08	3.0014e-08	-4.0726e-08	-6.8805e-07	-1.4038e-07	-8.2843e-07	-2.3359e-07	-2.1136e-07	-4.4495e-07	-3.7437e-07	-3.9056e-07	-7.6493e-07	-2.3162e-07	-2.428e-07	-4.7442e-07	-1.783e-07	-1.4064e-07	-3.1894e-07
-9.43e-07	-5.6724e-07	-1.5102e-06	-6.5577e-07	1.8782e-08	-6.3699e-07	-1.2997e-06	-4.1326e-07	-1.7129e-06	-9.9688e-07	-4.8041e-07	-1.4773e-06	4.6795e-08	1.352e-07	1.82e-07	8.957e-08	-1.5947e-07	-6.9904e-08	-2.6741e-07	-3.145e-07	-5.8192e-07	5.4695e-07	1.8275e-07	7.297e-07	-1.3667e-06	-3.781e-07	-1.7448e-06	-5.9561e-07	-1.3437e-07	-7.2998e-07	-5.258e-07	-1.0766e-07	-6.3346e-07	-4.7215e-07	-1.1495e-07	-5.8709e-07	-3.7127e-07	-1.1364e-07	-4.8491e-07	-9.7973e-07	-1.8467e-07	-1.1644e-06	-7.1884e-08	3.0685e-08	-4.1198e-08	-7.0044e-07	-1.4319e-07	-8.4363e-07	-2.3711e-07	-2.1561e-07	-4.5272e-07	-3.7991e-07	-3.9832e-07	-7.7823e-07	-2.348e-07	-2.4774e-07	-4.8254e-07	-1.8108e-07	-1.435e-07	-3.2458e-07
-9.6089e-07	-5.785e-07	-1.5394e-06	-6.6729e-07	1.858e-08	-6.4871e-07	-1.3232e-06	-4.2173e-07	-1.7449e-06	-1.0144e-06	-4.8911e-07	-1.5035e-06	4.7287e-08	1.3769e-07	1.8498e-07	9.1046e-08	-1.6264e-07	-7.1598e-08	-2.7188e-07	-3.2007e-07	-5.9194e-07	5.5787e-07	1.8591e-07	7.4377e-07	-1.3912e-06	-3.8523e-07	-1.7764e-06	-6.0672e-07	-1.3698e-07	-7.437e-07	-5.3528e-07	-1.1012e-07	-6.454e-07	-4.8022e-07	-1.1737e-07	-5.9759e-07	-3.7726e-07	-1.1636e-07	-4.9362e-07	-9.9726e-07	-1.8815e-07	-1.1854e-06	-7.3018e-08	3.1358e-08	-4.166e-08	-7.1277e-07	-1.4601e-07	-8.5877e-07	-2.4059e-07	-2.1985e-07	-4.6044e-07	-3.8537e-07	-4.0607e-07	-7.9144e-07	-2.3793e-07	-2.5267e-07	-4.906e-07	-1.8383e-07	-1.4636e-07	-3.3019e-07
-9.7874e-07	-5.8975e-07	-1.5685e-06	-6.7875e-07	1.8359e-08	-6.604e-07	-1.3467e-06	-4.302e-07	-1.7769e-06	-1.0318e-06	-4.9778e-07	-1.5296e-06	4.7764e-08	1.4017e-07	1.8793e-07	9.2508e-08	-1.6581e-07	-7.3301e-08	-2.7631e-07	-3.256e-07	-6.0191e-07	5.6877e-07	1.8905e-07	7.5782e-07	-1.4155e-06	-3.9235e-07	-1.8078e-06	-6.178e-07	-1.396e-07	-7.574e-07	-5.4471e-07	-1.126e-07	-6.5731e-07	-4.8823e-07	-1.1979e-07	-6.0803e-07	-3.8321e-07	-1.1909e-07	-5.023e-07	-1.0147e-06	-1.9162e-07	-1.2063e-06	-7.4145e-08	3.2033e-08	-4.2112e-08	-7.2504e-07	-1.4881e-07	-8.7385e-07	-2.4404e-07	-2.2408e-07	-4.6812e-07	-3.9077e-07	-4.138e-07	-8.0456e-07	-2.4101e-07	-2.576e-07	-4.9861e-07	-1.8656e-07	-1.492e-07	-3.3576e-07
-9.9654e-07	-6.0099e-07	-1.5975e-06	-6.9016e-07	1.812e-08	-6.7204e-07	-1.37e-06	-4.3867e-07	-1.8087e-06	-1.0491e-06	-5.0642e-07	-1.5555e-06	4.8226e-08	1.4264e-07	1.9087e-07	9.3958e-08	-1.6897e-07	-7.5013e-08	-2.8072e-07	-3.3111e-07	-6.1182e-07	5.7967e-07	1.9217e-07	7.7184e-07	-1.4397e-06	-3.9946e-07	-1.8391e-06	-6.2886e-07	-1.4221e-07	-7.7107e-07	-5.5411e-07	-1.1507e-07	-6.6918e-07	-4.962e-07	-1.2222e-07	-6.1842e-07	-3.891e-07	-1.2184e-07	-5.1094e-07	-1.0321e-06	-1.9508e-07	-1.2272e-06	-7.5263e-08	3.271e-08	-4.2553e-08	-7.3725e-07	-1.5161e-07	-8.8886e-07	-2.4745e-07	-2.2831e-07	-4.7576e-07	-3.9609e-07	-4.2151e-07	-8.176e-07	-2.4404e-07	-2.6253e-07	-5.0656e-07	-1.8926e-07	-1.5205e-07	-3.4131e-07
-1.0143e-06	-6.1222e-07	-1.6265e-06	-7.0151e-07	1.7863e-08	-6.8365e-07	-1.3933e-06	-4.4713e-07	-1.8404e-06	-1.0664e-06	-5.1502e-07	-1.5814e-06	4.8672e-08	1.451e-07	1.9378e-07	9.5393e-08	-1.7213e-07	-7.6732e-08	-2.8509e-07	-3.3658e-07	-6.2167e-07	5.9056e-07	1.9528e-07	7.8584e-07	-1.4638e-06	-4.0654e-07	-1.8703e-06	-6.3989e-07	-1.4482e-07	-7.8471e-07	-5.6346e-07	-1.1756e-07	-6.8102e-07	-5.0411e-07	-1.2464e-07	-6.2875e-07	-3.9494e-07	-1.2459e-07	-5.1953e-07	-1.0494e-06	-1.9852e-07	-1.2479e-06	-7.6373e-08	3.3389e-08	-4.2984e-08	-7.494e-07	-1.5441e-07	-9.0381e-07	-2.5082e-07	-2.3253e-07	-4.8335e-07	-4.0134e-07	-4.2921e-07	-8.3055e-07	-2.4702e-07	-2.6744e-07	-5.1447e-07	-1.9194e-07	-1.5489e-07	-3.4683e-07
-1.032e-06	-6.2343e-07	-1.6554e-06	-7.128e-07	1.7588e-08	-6.9521e-07	-1.4164e-06	-4.556e-07	-1.872e-06	-1.0835e-06	-5.2359e-07	-1.6071e-06	4.9103e-08	1.4756e-07	1.9666e-07	9.6815e-08	-1.7527e-07	-7.846e-08	-2.8943e-07	-3.4203e-07	-6.3146e-07	6.0144e-07	1.9837e-07	7.9981e-07	-1.4878e-06	-4.1361e-07	-1.9014e-06	-6.509e-07	-1.4742e-07	-7.9832e-07	-5.7277e-07	-1.2004e-07	-6.9281e-07	-5.1197e-07	-1.2707e-07	-6.3904e-07	-4.0073e-07	-1.2735e-07	-5.2808e-07	-1.0666e-06	-2.0196e-07	-1.2686e-06	-7.7474e-08	3.4069e-08	-4.3404e-08	-7.6149e-07	-1.572e-07	-9.187e-07	-2.5416e-07	-2.3674e-07	-4.909e-07	-4.0652e-07	-4.3689e-07	-8.4341e-07	-2.4996e-07	-2.7235e-07	-5.2231e-07	-1.946e-07	-1.5772e-07	-3.5232e-07
-1.0497e-06	-6.3463e-07	-1.6843e-06	-7.2403e-07	1.7295e-08	-7.0673e-07	-1.4395e-06	-4.6406e-07	-1.9036e-06	-1.1005e-06	-5.3212e-07	-1.6327e-06	4.9518e-08	1.5e-07	1.9952e-07	9.8222e-08	-1.7842e-07	-8.0195e-08	-2.9374e-07	-3.4745e-07	-6.4119e-07	6.1231e-07	2.0144e-07	8.1375e-07	-1.5117e-06	-4.2066e-07	-1.9323e-06	-6.6189e-07	-1.5002e-07	-8.1191e-07	-5.8203e-07	-1.2253e-07	-7.0457e-07	-5.1978e-07	-1.2949e-07	-6.4927e-07	-4.0646e-07	-1.3012e-07	-5.3658e-07	-1.0837e-06	-2.0538e-07	-1.2891e-06	-7.8567e-08	3.4752e-08	-4.3815e-08	-7.7353e-07	-1.5999e-07	-9.3352e-07	-2.5746e-07	-2.4095e-07	-4.984e-07	-4.1162e-07	-4.4456e-07	-8.5618e-07	-2.5285e-07	-2.7726e-07	-5.3011e-07	-1.9723e-07	-1.6054e-07	-3.5777e-07
-1.0673e-06	-6.4581e-07	-1.7131e-06	-7.352e-07	1.6985e-08	-7.1822e-07	-1.4625e-06	-4.7251e-07	-1.935e-06	-1.1175e-06	-5.4062e-07	-1.6581e-06	4.9917e-08	1.5244e-07	2.0235e-07	9.9615e-08	-1.8155e-07	-8.1939e-08	-2.9802e-07	-3.5283e-07	-6.5086e-07	6.2317e-07	2.045e-07	8.2767e-07	-1.5354e-06	-4.277e-07	-1.9631e-06	-6.7284e-07	-1.5262e-07	-8.2546e-07	-5.9126e-07	-1.2503e-07	-7.1629e-07	-5.2753e-07	-1.3192e-07	-6.5945e-07	-4.1214e-07	-1.329e-07	-5.4504e-07	-1.1008e-06	-2.088e-07	-1.3096e-06	-7.9652e-08	3.5436e-08	-4.4216e-08	-7.855e-07	-1.6277e-07	-9.4827e-07	-2.6072e-07	-2.4514e-07	-5.0586e-07	-4.1665e-07	-4.5221e-07	-8.6886e-07	-2.5568e-07	-2.8216e-07	-5.3784e-07	-1.9984e-07	-1.6336e-07	-3.632e-07
-1.0849e-06	-6.5698e-07	-1.7418e-06	-7.4632e-07	1.6656e-08	-7.2966e-07	-1.4853e-06	-4.8097e-07	-1.9663e-06	-1.1344e-06	-5.4908e-07	-1.6834e-06	5.0301e-08	1.5486e-07	2.0516e-07	1.0099e-07	-1.8468e-07	-8.369e-08	-3.0227e-07	-3.5819e-07	-6.6046e-07	6.3402e-07	2.0753e-07	8.4155e-07	-1.5591e-06	-4.3471e-07	-1.9938e-06	-6.8377e-07	-1.5522e-07	-8.3899e-07	-6.0043e-07	-1.2753e-07	-7.2796e-07	-5.3523e-07	-1.3434e-07	-6.6957e-07	-4.1777e-07	-1.3568e-07	-5.5346e-07	-1.1177e-06	-2.122e-07	-1.3299e-06	-8.0728e-08	3.6122e-08	-4.4606e-08	-7.9741e-07	-1.6554e-07	-9.6295e-07	-2.6394e-07	-2.4933e-07	-5.1327e-07	-4.216e-07	-4.5984e-07	-8.8144e-07	-2.5847e-07	-2.8705e-07	-5.4553e-07	-2.0242e-07	-1.6617e-07	-3.6859e-07
-1.1024e-06	-6.6813e-07	-1.7705e-06	-7.5737e-07	1.6309e-08	-7.4106e-07	-1.5081e-06	-4.8941e-07	-1.9975e-06	-1.1511e-06	-5.575e-07	-1.7086e-06	5.0669e-08	1.5728e-07	2.0795e-07	1.0236e-07	-1.8781e-07	-8.5449e-08	-3.0649e-07	-3.6352e-07	-6.7001e-07	6.4486e-07	2.1055e-07	8.5541e-07	-1.5826e-06	-4.4171e-07	-2.0243e-06	-6.9468e-07	-1.5781e-07	-8.5249e-07	-6.0956e-07	-1.3004e-07	-7.396e-07	-5.4288e-07	-1.3676e-07	-6.7964e-07	-4.2335e-07	-1.3848e-07	-5.6183e-07	-1.1346e-06	-2.1559e-07	-1.3502e-06	-8.1797e-08	3.681e-08	-4.4987e-08	-8.0926e-07	-1.6831e-07	-9.7757e-07	-2.6713e-07	-2.5351e-07	-5.2064e-07	-4.2649e-07	-4.6745e-07	-8.9394e-07	-2.6122e-07	-2.9194e-07	-5.5315e-07	-2.0498e-07	-1.6898e-07	-3.7395e-07
-1.1199e-06	-6.7927e-07	-1.7991e-06	-7.6836e-07	1.5944e-08	-7.5241e-07	-1.5307e-06	-4.9786e-07	-2.0286e-06	-1.1678e-06	-5.6588e-07	-1.7337e-06	5.102e-08	1.5968e-07	2.107e-07	1.0371e-07	-1.9092e-07	-8.7215e-08	-3.1068e-07	-3.6881e-07	-6.7949e-07	6.5568e-07	2.1355e-07	8.6924e-07	-1.606e-06	-4.4868e-07	-2.0547e-06	-7.0556e-07	-1.6039e-07	-8.6595e-07	-6.1865e-07	-1.3254e-07	-7.5119e-07	-5.5047e-07	-1.3918e-07	-6.8965e-07	-4.2887e-07	-1.4128e-07	-5.7015e-07	-1.1514e-06	-2.1897e-07	-1.3704e-06	-8.2857e-08	3.7499e-08	-4.5358e-08	-8.2104e-07	-1.7107e-07	-9.9211e-07	-2.7028e-07	-2.5769e-07	-5.2796e-07	-4.3129e-07	-4.7505e-07	-9.0634e-07	-2.6391e-07	-2.9681e-07	-5.6072e-07	-2.0751e-07	-1.7177e-07	-3.7929e-07
-1.1373e-06	-6.9039e-07	-1.8277e-06	-7.7929e-07	1.5561e-08	-7.6373e-07	-1.5533e-06	-5.0629e-07	-2.0596e-06	-1.1844e-06	-5.7423e-07	-1.7586e-06	5.1356e-08	1.6208e-07	2.1344e-07	1.0505e-07	-1.9403e-07	-8.8989e-08	-3.1483e-07	-3.7407e-07	-6.8891e-07	6.665e-07	2.1653e-07	8.8303e-07	-1.6293e-06	-4.5564e-07	-2.085e-06	-7.1641e-07	-1.6298e-07	-8.7939e-07	-6.2768e-07	-1.3506e-07	-7.6274e-07	-5.58e-07	-1.416e-07	-6.996e-07	-4.3434e-07	-1.4409e-07	-5.7842e-07	-1.1681e-06	-2.2234e-07	-1.3904e-06	-8.391e-08	3.819e-08	-4.5719e-08	-8.3276e-07	-1.7383e-07	-1.0066e-06	-2.7339e-07	-2.6185e-07	-5.3524e-07	-4.3603e-07	-4.8262e-07	-9.1865e-07	-2.6655e-07	-3.0169e-07	-5.6824e-07	-2.1002e-07	-1.7456e-07	-3.8458e-07
-1.1546e-06	-7.0149e-07	-1.8561e-06	-7.9016e-07	1.5161e-08	-7.75e-07	-1.5758e-06	-5.1472e-07	-2.0905e-06	-1.2009e-06	-5.8254e-07	-1.7834e-06	5.1676e-08	1.6447e-07	2.1614e-07	1.0637e-07	-1.9714e-07	-9.077e-08	-3.1896e-07	-3.793e-07	-6.9826e-07	6.773e-07	2.195e-07	8.9679e-07	-1.6525e-06	-4.6257e-07	-2.1151e-06	-7.2723e-07	-1.6556e-07	-8.9279e-07	-6.3667e-07	-1.3757e-07	-7.7425e-07	-5.6548e-07	-1.4401e-07	-7.0949e-07	-4.3975e-07	-1.469e-07	-5.8665e-07	-1.1847e-06	-2.2569e-07	-1.4104e-06	-8.4954e-08	3.8883e-08	-4.6071e-08	-8.4442e-07	-1.7658e-07	-1.021e-06	-2.7646e-07	-2.66e-07	-5.4247e-07	-4.4069e-07	-4.9018e-07	-9.3086e-07	-2.6915e-07	-3.0655e-07	-5.757e-07	-2.1251e-07	-1.7734e-07	-3.8985e-07
-1.1719e-06	-7.1257e-07	-1.8845e-06	-8.0096e-07	1.4743e-08	-7.8622e-07	-1.5981e-06	-5.2315e-07	-2.1212e-06	-1.2172e-06	-5.9081e-07	-1.808e-06	5.198e-08	1.6684e-07	2.1882e-07	1.0767e-07	-2.0023e-07	-9.2558e-08	-3.2305e-07	-3.845e-07	-7.0755e-07	6.8809e-07	2.2244e-07	9.1053e-07	-1.6756e-06	-4.6949e-07	-2.1451e-06	-7.3803e-07	-1.6813e-07	-9.0616e-07	-6.4562e-07	-1.4009e-07	-7.8571e-07	-5.729e-07	-1.4643e-07	-7.1933e-07	-4.4511e-07	-1.4973e-07	-5.9483e-07	-1.2012e-06	-2.2903e-07	-1.4302e-06	-8.5991e-08	3.9578e-08	-4.6413e-08	-8.5601e-07	-1.7932e-07	-1.0353e-06	-2.795e-07	-2.7015e-07	-5.4965e-07	-4.4527e-07	-4.9771e-07	-9.4298e-07	-2.717e-07	-3.114e-07	-5.831e-07	-2.1497e-07	-1.8012e-07	-3.9509e-07
-1.1892e-06	-7.2363e-07	-1.9128e-06	-8.1171e-07	1.4307e-08	-7.974e-07	-1.6203e-06	-5.3156e-07	-2.1519e-06	-1.2335e-06	-5.9904e-07	-1.8325e-06	5.2267e-08	1.6921e-07	2.2147e-07	1.0896e-07	-2.0332e-07	-9.4353e-08	-3.2711e-07	-3.8967e-07	-7.1677e-07	6.9886e-07	2.2537e-07	9.2422e-07	-1.6985e-06	-4.7639e-07	-2.1749e-06	-7.488e-07	-1.707e-07	-9.195e-07	-6.5451e-07	-1.4261e-07	-7.9712e-07	-5.8027e-07	-1.4884e-07	-7.2911e-07	-4.5041e-07	-1.5256e-07	-6.0297e-07	-1.2176e-06	-2.3236e-07	-1.45e-06	-8.702e-08	4.0274e-08	-4.6745e-08	-8.6754e-07	-1.8206e-07	-1.0496e-06	-2.825e-07	-2.7428e-07	-5.5678e-07	-4.4978e-07	-5.0523e-07	-9.55e-07	-2.7419e-07	-3.1625e-07	-5.9044e-07	-2.1741e-07	-1.8288e-07	-4.0029e-07
-1.2064e-06	-7.3467e-07	-1.9411e-06	-8.2239e-07	1.3853e-08	-8.0853e-07	-1.6424e-06	-5.3997e-07	-2.1824e-06	-1.2497e-06	-6.0724e-07	-1.8569e-06	5.2538e-08	1.7156e-07	2.241e-07	1.1024e-07	-2.0639e-07	-9.6155e-08	-3.3113e-07	-3.948e-07	-7.2593e-07	7.0961e-07	2.2827e-07	9.3789e-07	-1.7213e-06	-4.8326e-07	-2.2046e-06	-7.5954e-07	-1.7327e-07	-9.3281e-07	-6.6336e-07	-1.4513e-07	-8.0849e-07	-5.8757e-07	-1.5125e-07	-7.3883e-07	-4.5566e-07	-1.5539e-07	-6.1105e-07	-1.234e-06	-2.3568e-07	-1.4696e-06	-8.8041e-08	4.0973e-08	-4.7068e-08	-8.79e-07	-1.8478e-07	-1.0638e-06	-2.8547e-07	-2.7841e-07	-5.6387e-07	-4.5421e-07	-5.1272e-07	-9.6693e-07	-2.7664e-07	-3.2108e-07	-5.9773e-07	-2.1982e-07	-1.8564e-07	-4.0546e-07
-1.2235e-06	-7.457e-07	-1.9692e-06	-8.33e-07	1.3382e-08	-8.1962e-07	-1.6645e-06	-5.4837e-07	-2.2128e-06	-1.2658e-06	-6.1539e-07	-1.8811e-06	5.2793e-08	1.7391e-07	2.267e-07	1.115e-07	-2.0946e-07	-9.7964e-08	-3.3513e-07	-3.999e-07	-7.3503e-07	7.2036e-07	2.3116e-07	9.5152e-07	-1.744e-06	-4.9011e-07	-2.2341e-06	-7.7025e-07	-1.7583e-07	-9.4608e-07	-6.7215e-07	-1.4766e-07	-8.1981e-07	-5.9482e-07	-1.5366e-07	-7.4848e-07	-4.6085e-07	-1.5824e-07	-6.1908e-07	-1.2502e-06	-2.3898e-07	-1.4892e-06	-8.9054e-08	4.1672e-08	-4.7382e-08	-8.904e-07	-1.875e-07	-1.0779e-06	-2.8839e-07	-2.8252e-07	-5.7091e-07	-4.5856e-07	-5.2019e-07	-9.7875e-07	-2.7904e-07	-3.2591e-07	-6.0496e-07	-2.2221e-07	-1.8838e-07	-4.106e-07
-1.2406e-06	-7.567e-07	-1.9973e-06	-8.4355e-07	1.2893e-08	-8.3066e-07	-1.6864e-06	-5.5676e-07	-2.2431e-06	-1.2817e-06	-6.235e-07	-1.9052e-06	5.3031e-08	1.7624e-07	2.2927e-07	1.1275e-07	-2.1253e-07	-9.9779e-08	-3.3909e-07	-4.0496e-07	-7.4405e-07	7.3108e-07	2.3403e-07	9.6512e-07	-1.7666e-06	-4.9694e-07	-2.2635e-06	-7.8093e-07	-1.7839e-07	-9.5932e-07	-6.809e-07	-1.5019e-07	-8.3109e-07	-6.0201e-07	-1.5607e-07	-7.5808e-07	-4.6598e-07	-1.6109e-07	-6.2706e-07	-1.2663e-06	-2.4227e-07	-1.5086e-06	-9.006e-08	4.2374e-08	-4.7686e-08	-9.0173e-07	-1.9022e-07	-1.092e-06	-2.9128e-07	-2.8663e-07	-5.7791e-07	-4.6284e-07	-5.2764e-07	-9.9048e-07	-2.814e-07	-3.3073e-07	-6.1213e-07	-2.2458e-07	-1.9112e-07	-4.157e-07
-1.2576e-06	-7.6767e-07	-2.0253e-06	-8.5404e-07	1.2387e-08	-8.4166e-07	-1.7081e-06	-5.6514e-07	-2.2733e-06	-1.2976e-06	-6.3157e-07	-1.9292e-06	5.3253e-08	1.7857e-07	2.3182e-07	1.1398e-07	-2.1558e-07	-1.016e-07	-3.4302e-07	-4.0999e-07	-7.5301e-07	7.4179e-07	2.3688e-07	9.7868e-07	-1.789e-06	-5.0375e-07	-2.2928e-06	-7.9159e-07	-1.8094e-07	-9.7253e-07	-6.896e-07	-1.5271e-07	-8.4231e-07	-6.0915e-07	-1.5847e-07	-7.6761e-07	-4.7106e-07	-1.6394e-07	-6.35e-07	-1.2824e-06	-2.4555e-07	-1.5279e-06	-9.1058e-08	4.3077e-08	-4.7981e-08	-9.13e-07	-1.9292e-07	-1.1059e-06	-2.9413e-07	-2.9072e-07	-5.8485e-07	-4.6705e-07	-5.3507e-07	-1.0021e-06	-2.837e-07	-3.3554e-07	-6.1924e-07	-2.2692e-07	-1.9385e-07	-4.2077e-07
-1.2746e-06	-7.7863e-07	-2.0532e-06	-8.6446e-07	1.1863e-08	-8.526e-07	-1.7298e-06	-5.7351e-07	-2.3033e-06	-1.3134e-06	-6.396e-07	-1.953e-06	5.3458e-08	1.8088e-07	2.3434e-07	1.1519e-07	-2.1862e-07	-1.0343e-07	-3.4692e-07	-4.1499e-07	-7.6191e-07	7.5249e-07	2.3971e-07	9.922e-07	-1.8113e-06	-5.1054e-07	-2.3219e-06	-8.0221e-07	-1.8349e-07	-9.857e-07	-6.9824e-07	-1.5525e-07	-8.5349e-07	-6.1622e-07	-1.6087e-07	-7.7708e-07	-4.7607e-07	-1.668e-07	-6.4288e-07	-1.2984e-06	-2.4881e-07	-1.5472e-06	-9.2049e-08	4.3782e-08	-4.8267e-08	-9.2419e-07	-1.9562e-07	-1.1198e-06	-2.9695e-07	-2.948e-07	-5.9175e-07	-4.7117e-07	-5.4247e-07	-1.0136e-06	-2.8596e-07	-3.4034e-07	-6.2629e-07	-2.2924e-07	-1.9657e-07	-4.2581e-07
-1.2915e-06	-7.8956e-07	-2.0811e-06	-8.7482e-07	1.1322e-08	-8.635e-07	-1.7514e-06	-5.8187e-07	-2.3333e-06	-1.329e-06	-6.4759e-07	-1.9766e-06	5.3646e-08	1.8318e-07	2.3683e-07	1.1639e-07	-2.2165e-07	-1.0526e-07	-3.5078e-07	-4.1995e-07	-7.7073e-07	7.6316e-07	2.4253e-07	1.0057e-06	-1.8335e-06	-5.173e-07	-2.3508e-06	-8.1281e-07	-1.8604e-07	-9.9884e-07	-7.0684e-07	-1.5778e-07	-8.6461e-07	-6.2323e-07	-1.6326e-07	-7.8649e-07	-4.8104e-07	-1.6967e-07	-6.507e-07	-1.3142e-06	-2.5206e-07	-1.5663e-06	-9.3032e-08	4.4489e-08	-4.8544e-08	-9.3532e-07	-1.9831e-07	-1.1336e-06	-2.9973e-07	-2.9887e-07	-5.986e-07	-4.7522e-07	-5.4985e-07	-1.0251e-06	-2.8816e-07	-3.4513e-07	-6.3329e-07	-2.3153e-07	-1.9928e-07	-4.3081e-07
-1.3084e-06	-8.0047e-07	-2.1088e-06	-8.8511e-07	1.0764e-08	-8.7435e-07	-1.7728e-06	-5.9022e-07	-2.3631e-06	-1.3446e-06	-6.5554e-07	-2.0001e-06	5.3818e-08	1.8547e-07	2.3929e-07	1.1758e-07	-2.2468e-07	-1.071e-07	-3.5461e-07	-4.2488e-07	-7.7949e-07	7.7382e-07	2.4532e-07	1.0191e-06	-1.8556e-06	-5.2405e-07	-2.3796e-06	-8.2337e-07	-1.8857e-07	-1.0119e-06	-7.1538e-07	-1.6031e-07	-8.7569e-07	-6.3018e-07	-1.6566e-07	-7.9584e-07	-4.8594e-07	-1.7254e-07	-6.5848e-07	-1.33e-06	-2.5529e-07	-1.5853e-06	-9.4008e-08	4.5197e-08	-4.8812e-08	-9.4638e-07	-2.0099e-07	-1.1474e-06	-3.0247e-07	-3.0293e-07	-6.054e-07	-4.792e-07	-5.5721e-07	-1.0364e-06	-2.9032e-07	-3.4991e-07	-6.4023e-07	-2.3381e-07	-2.0198e-07	-4.3578e-07
-1.3251e-06	-8.1135e-07	-2.1365e-06	-8.9534e-07	1.0188e-08	-8.8515e-07	-1.7942e-06	-5.9856e-07	-2.3927e-06	-1.36e-06	-6.6344e-07	-2.0235e-06	5.3973e-08	1.8775e-07	2.4172e-07	1.1875e-07	-2.2769e-07	-1.0895e-07	-3.5841e-07	-4.2977e-07	-7.8818e-07	7.8446e-07	2.4809e-07	1.0325e-06	-1.8775e-06	-5.3076e-07	-2.4083e-06	-8.3391e-07	-1.9111e-07	-1.025e-06	-7.2387e-07	-1.6285e-07	-8.8671e-07	-6.3707e-07	-1.6804e-07	-8.0512e-07	-4.9079e-07	-1.7541e-07	-6.662e-07	-1.3456e-06	-2.5851e-07	-1.6042e-06	-9.4977e-08	4.5907e-08	-4.9071e-08	-9.5738e-07	-2.0367e-07	-1.161e-06	-3.0517e-07	-3.0698e-07	-6.1215e-07	-4.8309e-07	-5.6454e-07	-1.0476e-06	-2.9243e-07	-3.5468e-07	-6.4711e-07	-2.3605e-07	-2.0467e-07	-4.4072e-07
-1.3419e-06	-8.2221e-07	-2.1641e-06	-9.055e-07	9.5959e-09	-8.959e-07	-1.8154e-06	-6.0688e-07	-2.4223e-06	-1.3754e-06	-6.7131e-07	-2.0467e-06	5.4111e-08	1.9002e-07	2.4413e-07	1.199e-07	-2.307e-07	-1.108e-07	-3.6217e-07	-4.3463e-07	-7.968e-07	7.9508e-07	2.5085e-07	1.0459e-06	-1.8993e-06	-5.3746e-07	-2.4368e-06	-8.4441e-07	-1.9364e-07	-1.038e-06	-7.323e-07	-1.6538e-07	-8.9769e-07	-6.439e-07	-1.7043e-07	-8.1433e-07	-4.9558e-07	-1.7829e-07	-6.7387e-07	-1.3612e-06	-2.6171e-07	-1.6229e-06	-9.5939e-08	4.6618e-08	-4.9321e-08	-9.683e-07	-2.0633e-07	-1.1746e-06	-3.0784e-07	-3.1101e-07	-6.1886e-07	-4.8691e-07	-5.7185e-07	-1.0588e-06	-2.9449e-07	-3.5943e-07	-6.5392e-07	-2.3828e-07	-2.0734e-07	-4.4562e-07
-1.3585e-06	-8.3304e-07	-2.1916e-06	-9.1559e-07	8.9864e-09	-9.066e-07	-1.8365e-06	-6.1519e-07	-2.4517e-06	-1.3906e-06	-6.7912e-07	-2.0697e-06	5.4232e-08	1.9228e-07	2.4651e-07	1.2104e-07	-2.3369e-07	-1.1266e-07	-3.659e-07	-4.3945e-07	-8.0535e-07	8.0568e-07	2.5358e-07	1.0593e-06	-1.921e-06	-5.4413e-07	-2.4651e-06	-8.5489e-07	-1.9616e-07	-1.051e-06	-7.4069e-07	-1.6792e-07	-9.0861e-07	-6.5067e-07	-1.7281e-07	-8.2348e-07	-5.0031e-07	-1.8118e-07	-6.8149e-07	-1.3767e-06	-2.649e-07	-1.6416e-06	-9.6894e-08	4.7331e-08	-4.9563e-08	-9.7915e-07	-2.0899e-07	-1.1881e-06	-3.1048e-07	-3.1504e-07	-6.2551e-07	-4.9065e-07	-5.7913e-07	-1.0698e-06	-2.965e-07	-3.6418e-07	-6.6068e-07	-2.4048e-07	-2.1001e-07	-4.5049e-07
-1.3751e-06	-8.4385e-07	-2.219e-06	-9.2561e-07	8.36e-09	-9.1725e-07	-1.8574e-06	-6.2349e-07	-2.4809e-06	-1.4057e-06	-6.869e-07	-2.0926e-06	5.4336e-08	1.9452e-07	2.4886e-07	1.2216e-07	-2.3668e-07	-1.1452e-07	-3.696e-07	-4.4423e-07	-8.1383e-07	8.1625e-07	2.5629e-07	1.0725e-06	-1.9425e-06	-5.5077e-07	-2.4933e-06	-8.6533e-07	-1.9868e-07	-1.064e-06	-7.4902e-07	-1.7046e-07	-9.1947e-07	-6.5738e-07	-1.7519e-07	-8.3256e-07	-5.0498e-07	-1.8407e-07	-6.8905e-07	-1.3921e-06	-2.6808e-07	-1.6601e-06	-9.7842e-08	4.8046e-08	-4.9796e-08	-9.8994e-07	-2.1164e-07	-1.2016e-06	-3.1307e-07	-3.1905e-07	-6.3212e-07	-4.9432e-07	-5.8639e-07	-1.0807e-06	-2.9847e-07	-3.6891e-07	-6.6738e-07	-2.4266e-07	-2.1267e-07	-4.5532e-07
-1.3916e-06	-8.5463e-07	-2.2463e-06	-9.3557e-07	7.7168e-09	-9.2785e-07	-1.8783e-06	-6.3178e-07	-2.5101e-06	-1.4207e-06	-6.9463e-07	-2.1154e-06	5.4423e-08	1.9676e-07	2.5118e-07	1.2326e-07	-2.3965e-07	-1.1639e-07	-3.7326e-07	-4.4898e-07	-8.2224e-07	8.2681e-07	2.5899e-07	1.0858e-06	-1.9639e-06	-5.574e-07	-2.5213e-06	-8.7574e-07	-2.0119e-07	-1.0769e-06	-7.5729e-07	-1.7299e-07	-9.3028e-07	-6.6402e-07	-1.7756e-07	-8.4158e-07	-5.0959e-07	-1.8696e-07	-6.9655e-07	-1.4073e-06	-2.7124e-07	-1.6786e-06	-9.8783e-08	4.8762e-08	-5.0021e-08	-1.0007e-06	-2.1428e-07	-1.2149e-06	-3.1563e-07	-3.2304e-07	-6.3868e-07	-4.979e-07	-5.9362e-07	-1.0915e-06	-3.0038e-07	-3.7364e-07	-6.7402e-07	-2.4481e-07	-2.1531e-07	-4.6012e-07
-1.4081e-06	-8.6538e-07	-2.2735e-06	-9.4546e-07	7.0569e-09	-9.384e-07	-1.899e-06	-6.4005e-07	-2.5391e-06	-1.4356e-06	-7.0232e-07	-2.138e-06	5.4493e-08	1.9898e-07	2.5347e-07	1.2435e-07	-2.4261e-07	-1.1826e-07	-3.7689e-07	-4.5369e-07	-8.3058e-07	8.3735e-07	2.6166e-07	1.099e-06	-1.9851e-06	-5.6399e-07	-2.5491e-06	-8.8613e-07	-2.0369e-07	-1.0898e-06	-7.6551e-07	-1.7553e-07	-9.4104e-07	-6.706e-07	-1.7993e-07	-8.5053e-07	-5.1414e-07	-1.8986e-07	-7.04e-07	-1.4225e-06	-2.7438e-07	-1.6969e-06	-9.9717e-08	4.948e-08	-5.0237e-08	-1.0113e-06	-2.1691e-07	-1.2282e-06	-3.1815e-07	-3.2703e-07	-6.4518e-07	-5.0141e-07	-6.0082e-07	-1.1022e-06	-3.0225e-07	-3.7835e-07	-6.806e-07	-2.4694e-07	-2.1794e-07	-4.6489e-07
-1.4245e-06	-8.761e-07	-2.3006e-06	-9.5528e-07	6.3803e-09	-9.489e-07	-1.9196e-06	-6.483e-07	-2.5679e-06	-1.4504e-06	-7.0996e-07	-2.1604e-06	5.4546e-08	2.0119e-07	2.5574e-07	1.2543e-07	-2.4557e-07	-1.2014e-07	-3.8049e-07	-4.5836e-07	-8.3885e-07	8.4787e-07	2.6432e-07	1.1122e-06	-2.0062e-06	-5.7056e-07	-2.5768e-06	-8.9648e-07	-2.062e-07	-1.1027e-06	-7.7368e-07	-1.7807e-07	-9.5174e-07	-6.7712e-07	-1.8229e-07	-8.5941e-07	-5.1864e-07	-1.9276e-07	-7.1139e-07	-1.4376e-06	-2.7751e-07	-1.7151e-06	-1.0064e-07	5.0199e-08	-5.0446e-08	-1.0219e-06	-2.1953e-07	-1.2414e-06	-3.2064e-07	-3.31e-07	-6.5164e-07	-5.0484e-07	-6.08e-07	-1.1128e-06	-3.0407e-07	-3.8305e-07	-6.8712e-07	-2.4905e-07	-2.2057e-07	-4.6962e-07
-1.4408e-06	-8.868e-07	-2.3276e-06	-9.6503e-07	5.6873e-09	-9.5934e-07	-1.9401e-06	-6.5654e-07	-2.5967e-06	-1.4651e-06	-7.1756e-07	-2.1827e-06	5.4581e-08	2.0339e-07	2.5797e-07	1.2649e-07	-2.4851e-07	-1.2202e-07	-3.8405e-07	-4.63e-07	-8.4705e-07	8.5836e-07	2.6696e-07	1.1253e-06	-2.0272e-06	-5.7711e-07	-2.6043e-06	-9.068e-07	-2.0869e-07	-1.1155e-06	-7.8178e-07	-1.806e-07	-9.6239e-07	-6.8357e-07	-1.8465e-07	-8.6822e-07	-5.2307e-07	-1.9566e-07	-7.1873e-07	-1.4525e-06	-2.8062e-07	-1.7332e-06	-1.0157e-07	5.092e-08	-5.0646e-08	-1.0324e-06	-2.2214e-07	-1.2545e-06	-3.2309e-07	-3.3496e-07	-6.5805e-07	-5.082e-07	-6.1515e-07	-1.1233e-06	-3.0585e-07	-3.8774e-07	-6.9358e-07	-2.5114e-07	-2.2318e-07	-4.7431e-07
-1.4571e-06	-8.9746e-07	-2.3546e-06	-9.7471e-07	4.9779e-09	-9.6974e-07	-1.9605e-06	-6.6476e-07	-2.6252e-06	-1.4797e-06	-7.2512e-07	-2.2048e-06	5.46e-08	2.0558e-07	2.6018e-07	1.2753e-07	-2.5144e-07	-1.2391e-07	-3.8758e-07	-4.676e-07	-8.5517e-07	8.6883e-07	2.6957e-07	1.1384e-06	-2.0481e-06	-5.8363e-07	-2.6317e-06	-9.1708e-07	-2.1118e-07	-1.1283e-06	-7.8984e-07	-1.8314e-07	-9.7297e-07	-6.8996e-07	-1.87e-07	-8.7696e-07	-5.2745e-07	-1.9856e-07	-7.2601e-07	-1.4674e-06	-2.8372e-07	-1.7511e-06	-1.0248e-07	5.1643e-08	-5.0838e-08	-1.0428e-06	-2.2474e-07	-1.2675e-06	-3.2551e-07	-3.389e-07	-6.6441e-07	-5.1147e-07	-6.2227e-07	-1.1337e-06	-3.0757e-07	-3.9241e-07	-6.9998e-07	-2.532e-07	-2.2577e-07	-4.7897e-07
-1.4733e-06	-9.0809e-07	-2.3814e-06	-9.8433e-07	4.2522e-09	-9.8008e-07	-1.9807e-06	-6.7297e-07	-2.6537e-06	-1.4942e-06	-7.3263e-07	-2.2268e-06	5.4601e-08	2.0775e-07	2.6235e-07	1.2856e-07	-2.5436e-07	-1.258e-07	-3.9107e-07	-4.7216e-07	-8.6323e-07	8.7928e-07	2.7217e-07	1.1514e-06	-2.0688e-06	-5.9012e-07	-2.6589e-06	-9.2734e-07	-2.1366e-07	-1.141e-06	-7.9783e-07	-1.8567e-07	-9.835e-07	-6.9628e-07	-1.8935e-07	-8.8564e-07	-5.3176e-07	-2.0147e-07	-7.3324e-07	-1.4822e-06	-2.868e-07	-1.769e-06	-1.0339e-07	5.2367e-08	-5.1022e-08	-1.0532e-06	-2.2734e-07	-1.2805e-06	-3.2789e-07	-3.4283e-07	-6.7072e-07	-5.1467e-07	-6.2936e-07	-1.144e-06	-3.0925e-07	-3.9707e-07	-7.0632e-07	-2.5524e-07	-2.2836e-07	-4.836e-07
-1.4894e-06	-9.187e-07	-2.4081e-06	-9.9387e-07	3.5104e-09	-9.9036e-07	-2.0008e-06	-6.8116e-07	-2.682e-06	-1.5085e-06	-7.4009e-07	-2.2486e-06	5.4585e-08	2.0992e-07	2.645e-07	1.2957e-07	-2.5726e-07	-1.2769e-07	-3.9453e-07	-4.7668e-07	-8.7121e-07	8.897e-07	2.7474e-07	1.1644e-06	-2.0893e-06	-5.9659e-07	-2.6859e-06	-9.3756e-07	-2.1614e-07	-1.1537e-06	-8.0577e-07	-1.882e-07	-9.9398e-07	-7.0254e-07	-1.9169e-07	-8.9424e-07	-5.3602e-07	-2.0438e-07	-7.404e-07	-1.4968e-06	-2.8986e-07	-1.7867e-06	-1.0429e-07	5.3093e-08	-5.1199e-08	-1.0634e-06	-2.2992e-07	-1.2934e-06	-3.3023e-07	-3.4675e-07	-6.7698e-07	-5.1779e-07	-6.3643e-07	-1.1542e-06	-3.1088e-07	-4.0172e-07	-7.126e-07	-2.5726e-07	-2.3093e-07	-4.8819e-07
-1.5055e-06	-9.2927e-07	-2.4347e-06	-1.0033e-06	2.7525e-09	-1.0006e-06	-2.0208e-06	-6.8933e-07	-2.7101e-06	-1.5227e-06	-7.4751e-07	-2.2702e-06	5.4552e-08	2.1207e-07	2.6662e-07	1.3056e-07	-2.6016e-07	-1.2959e-07	-3.9795e-07	-4.8117e-07	-8.7912e-07	9.001e-07	2.773e-07	1.1774e-06	-2.1097e-06	-6.0303e-07	-2.7128e-06	-9.4775e-07	-2.1861e-07	-1.1664e-06	-8.1366e-07	-1.9074e-07	-1.0044e-06	-7.0874e-07	-1.9403e-07	-9.0277e-07	-5.4021e-07	-2.073e-07	-7.4751e-07	-1.5114e-06	-2.9291e-07	-1.8043e-06	-1.0519e-07	5.382e-08	-5.1367e-08	-1.0737e-06	-2.3249e-07	-1.3061e-06	-3.3254e-07	-3.5065e-07	-6.8319e-07	-5.2083e-07	-6.4346e-07	-1.1643e-06	-3.1246e-07	-4.0635e-07	-7.1882e-07	-2.5925e-07	-2.3349e-07	-4.9274e-07
-1.5214e-06	-9.3981e-07	-2.4612e-06	-1.0128e-06	1.9787e-09	-1.0108e-06	-2.0407e-06	-6.9748e-07	-2.7382e-06	-1.5369e-06	-7.5488e-07	-2.2917e-06	5.4501e-08	2.142e-07	2.6871e-07	1.3154e-07	-2.6304e-07	-1.315e-07	-4.0135e-07	-4.8561e-07	-8.8696e-07	9.1048e-07	2.7983e-07	1.1903e-06	-2.13e-06	-6.0944e-07	-2.7395e-06	-9.579e-07	-2.2107e-07	-1.179e-06	-8.2148e-07	-1.9327e-07	-1.0147e-06	-7.1487e-07	-1.9636e-07	-9.1123e-07	-5.4435e-07	-2.1021e-07	-7.5456e-07	-1.5259e-06	-2.9594e-07	-1.8218e-06	-1.0608e-07	5.4548e-08	-5.1529e-08	-1.0838e-06	-2.3506e-07	-1.3188e-06	-3.3482e-07	-3.5454e-07	-6.8935e-07	-5.2379e-07	-6.5047e-07	-1.1743e-06	-3.14e-07	-4.1098e-07	-7.2497e-07	-2.6122e-07	-2.3604e-07	-4.9726e-07
-1.5373e-06	-9.5032e-07	-2.4877e-06	-1.0221e-06	1.189e-09	-1.0209e-06	-2.0604e-06	-7.0562e-07	-2.766e-06	-1.5509e-06	-7.622e-07	-2.3131e-06	5.4433e-08	2.1633e-07	2.7076e-07	1.325e-07	-2.6591e-07	-1.334e-07	-4.047e-07	-4.9002e-07	-8.9472e-07	9.2083e-07	2.8235e-07	1.2032e-06	-2.1502e-06	-6.1583e-07	-2.766e-06	-9.6803e-07	-2.2353e-07	-1.1916e-06	-8.2925e-07	-1.9579e-07	-1.025e-06	-7.2093e-07	-1.9869e-07	-9.1962e-07	-5.4842e-07	-2.1313e-07	-7.6155e-07	-1.5402e-06	-2.9895e-07	-1.8392e-06	-1.0696e-07	5.5279e-08	-5.1683e-08	-1.0939e-06	-2.3761e-07	-1.3315e-06	-3.3705e-07	-3.5841e-07	-6.9546e-07	-5.2668e-07	-6.5745e-07	-1.1841e-06	-3.1549e-07	-4.1558e-07	-7.3107e-07	-2.6317e-07	-2.3857e-07	-5.0175e-07
-1.5532e-06	-9.6079e-07	-2.514e-06	-1.0314e-06	3.8378e-10	-1.031e-06	-2.08e-06	-7.1373e-07	-2.7937e-06	-1.5647e-06	-7.6948e-07	-2.3342e-06	5.4347e-08	2.1844e-07	2.7279e-07	1.3345e-07	-2.6876e-07	-1.3531e-07	-4.0803e-07	-4.9439e-07	-9.0242e-07	9.3115e-07	2.8484e-07	1.216e-06	-2.1702e-06	-6.2219e-07	-2.7923e-06	-9.7812e-07	-2.2598e-07	-1.2041e-06	-8.3696e-07	-1.9832e-07	-1.0353e-06	-7.2693e-07	-2.01e-07	-9.2794e-07	-5.5243e-07	-2.1605e-07	-7.6848e-07	-1.5544e-06	-3.0195e-07	-1.8564e-06	-1.0784e-07	5.601e-08	-5.1829e-08	-1.1038e-06	-2.4016e-07	-1.344e-06	-3.3926e-07	-3.6227e-07	-7.0152e-07	-5.2949e-07	-6.6439e-07	-1.1939e-06	-3.1693e-07	-4.2018e-07	-7.371e-07	-2.651e-07	-2.4109e-07	-5.0619e-07
-1.5689e-06	-9.7123e-07	-2.5402e-06	-1.0405e-06	-4.3702e-10	-1.041e-06	-2.0995e-06	-7.2183e-07	-2.8213e-06	-1.5785e-06	-7.7671e-07	-2.3552e-06	5.4244e-08	2.2055e-07	2.7479e-07	1.3438e-07	-2.7161e-07	-1.3723e-07	-4.1132e-07	-4.9872e-07	-9.1003e-07	9.4145e-07	2.8732e-07	1.2288e-06	-2.19e-06	-6.2852e-07	-2.8185e-06	-9.8817e-07	-2.2842e-07	-1.2166e-06	-8.446e-07	-2.0085e-07	-1.0455e-06	-7.3286e-07	-2.0332e-07	-9.3618e-07	-5.5638e-07	-2.1897e-07	-7.7535e-07	-1.5686e-06	-3.0493e-07	-1.8735e-06	-1.0871e-07	5.6744e-08	-5.1968e-08	-1.1138e-06	-2.4269e-07	-1.3565e-06	-3.4143e-07	-3.6611e-07	-7.0753e-07	-5.3222e-07	-6.7131e-07	-1.2035e-06	-3.1832e-07	-4.2476e-07	-7.4308e-07	-2.6701e-07	-2.436e-07	-5.1061e-07
-1.5846e-06	-9.8164e-07	-2.5663e-06	-1.0497e-06	-1.2732e-09	-1.0509e-06	-2.1188e-06	-7.299e-07	-2.8487e-06	-1.5922e-06	-7.8389e-07	-2.3761e-06	5.4123e-08	2.2263e-07	2.7676e-07	1.353e-07	-2.7444e-07	-1.3914e-07	-4.1457e-07	-5.0301e-07	-9.1758e-07	9.5173e-07	2.8977e-07	1.2415e-06	-2.2097e-06	-6.3482e-07	-2.8445e-06	-9.982e-07	-2.3086e-07	-1.2291e-06	-8.5219e-07	-2.0337e-07	-1.0556e-06	-7.3873e-07	-2.0562e-07	-9.4435e-07	-5.6028e-07	-2.2189e-07	-7.8216e-07	-1.5826e-06	-3.0789e-07	-1.8905e-06	-1.0958e-07	5.7478e-08	-5.2101e-08	-1.1236e-06	-2.4521e-07	-1.3688e-06	-3.4356e-07	-3.6993e-07	-7.1349e-07	-5.3487e-07	-6.7819e-07	-1.2131e-06	-3.1967e-07	-4.2932e-07	-7.4899e-07	-2.6889e-07	-2.4609e-07	-5.1498e-07
-1.6002e-06	-9.9201e-07	-2.5922e-06	-1.0587e-06	-2.1247e-09	-1.0608e-06	-2.1381e-06	-7.3796e-07	-2.876e-06	-1.6057e-06	-7.9102e-07	-2.3967e-06	5.3985e-08	2.2471e-07	2.787e-07	1.362e-07	-2.7726e-07	-1.4106e-07	-4.1779e-07	-5.0725e-07	-9.2504e-07	9.6197e-07	2.9221e-07	1.2542e-06	-2.2293e-06	-6.411e-07	-2.8704e-06	-1.0082e-06	-2.3329e-07	-1.2415e-06	-8.5973e-07	-2.0589e-07	-1.0656e-06	-7.4453e-07	-2.0792e-07	-9.5245e-07	-5.6411e-07	-2.2481e-07	-7.8891e-07	-1.5965e-06	-3.1084e-07	-1.9074e-06	-1.1044e-07	5.8215e-08	-5.2226e-08	-1.1334e-06	-2.4772e-07	-1.3811e-06	-3.4566e-07	-3.7374e-07	-7.194e-07	-5.3744e-07	-6.8505e-07	-1.2225e-06	-3.2097e-07	-4.3387e-07	-7.5484e-07	-2.7075e-07	-2.4857e-07	-5.1932e-07
-1.6158e-06	-1.0023e-06	-2.6181e-06	-1.0677e-06	-2.9912e-09	-1.0707e-06	-2.1571e-06	-7.4599e-07	-2.9031e-06	-1.6191e-06	-7.9811e-07	-2.4173e-06	5.383e-08	2.2677e-07	2.806e-07	1.3708e-07	-2.8006e-07	-1.4298e-07	-4.2098e-07	-5.1146e-07	-9.3244e-07	9.7219e-07	2.9462e-07	1.2668e-06	-2.2487e-06	-6.4734e-07	-2.896e-06	-1.0181e-06	-2.3571e-07	-1.2539e-06	-8.672e-07	-2.084e-07	-1.0756e-06	-7.5026e-07	-2.1021e-07	-9.6047e-07	-5.6787e-07	-2.2773e-07	-7.956e-07	-1.6103e-06	-3.1376e-07	-1.9241e-06	-1.113e-07	5.8952e-08	-5.2345e-08	-1.1431e-06	-2.5023e-07	-1.3933e-06	-3.4772e-07	-3.7754e-07	-7.2526e-07	-5.3994e-07	-6.9187e-07	-1.2318e-06	-3.2223e-07	-4.3841e-07	-7.6063e-07	-2.7259e-07	-2.5104e-07	-5.2363e-07
-1.6312e-06	-1.0126e-06	-2.6439e-06	-1.0766e-06	-3.8728e-09	-1.0805e-06	-2.1761e-06	-7.54e-07	-2.9301e-06	-1.6324e-06	-8.0515e-07	-2.4376e-06	5.3657e-08	2.2882e-07	2.8248e-07	1.3795e-07	-2.8286e-07	-1.4491e-07	-4.2413e-07	-5.1563e-07	-9.3976e-07	9.8238e-07	2.9702e-07	1.2794e-06	-2.268e-06	-6.5356e-07	-2.9215e-06	-1.0281e-06	-2.3813e-07	-1.2662e-06	-8.7461e-07	-2.1092e-07	-1.0855e-06	-7.5592e-07	-2.125e-07	-9.6842e-07	-5.7158e-07	-2.3065e-07	-8.0223e-07	-1.6241e-06	-3.1667e-07	-1.9407e-06	-1.1215e-07	5.9691e-08	-5.2456e-08	-1.1527e-06	-2.5272e-07	-1.4054e-06	-3.4975e-07	-3.8132e-07	-7.3107e-07	-5.4235e-07	-6.9866e-07	-1.241e-06	-3.2343e-07	-4.4293e-07	-7.6636e-07	-2.744e-07	-2.5349e-07	-5.2789e-07
-1.6466e-06	-1.0229e-06	-2.6695e-06	-1.0854e-06	-4.7691e-09	-1.0902e-06	-2.1949e-06	-7.6199e-07	-2.9569e-06	-1.6456e-06	-8.1214e-07	-2.4578e-06	5.3466e-08	2.3086e-07	2.8433e-07	1.388e-07	-2.8563e-07	-1.4684e-07	-4.2724e-07	-5.1976e-07	-9.47e-07	9.9254e-07	2.9939e-07	1.2919e-06	-2.2871e-06	-6.5975e-07	-2.9468e-06	-1.0379e-06	-2.4054e-07	-1.2785e-06	-8.8196e-07	-2.1343e-07	-1.0954e-06	-7.6151e-07	-2.1478e-07	-9.7629e-07	-5.7523e-07	-2.3357e-07	-8.088e-07	-1.6377e-06	-3.1956e-07	-1.9572e-06	-1.1299e-07	6.0432e-08	-5.2562e-08	-1.1622e-06	-2.552e-07	-1.4174e-06	-3.5175e-07	-3.8508e-07	-7.3683e-07	-5.4469e-07	-7.0542e-07	-1.2501e-06	-3.246e-07	-4.4743e-07	-7.7203e-07	-2.762e-07	-2.5593e-07	-5.3213e-07
-1.6619e-06	-1.0331e-06	-2.6951e-06	-1.0942e-06	-5.6802e-09	-1.0999e-06	-2.2136e-06	-7.6996e-07	-2.9836e-06	-1.6587e-06	-8.1908e-07	-2.4778e-06	5.3258e-08	2.3289e-07	2.8615e-07	1.3963e-07	-2.884e-07	-1.4876e-07	-4.3033e-07	-5.2385e-07	-9.5417e-07	1.0027e-06	3.0174e-07	1.3044e-06	-2.306e-06	-6.659e-07	-2.9719e-06	-1.0478e-06	-2.4294e-07	-1.2907e-06	-8.8924e-07	-2.1594e-07	-1.1052e-06	-7.6704e-07	-2.1705e-07	-9.8409e-07	-5.7881e-07	-2.365e-07	-8.153e-07	-1.6511e-06	-3.2244e-07	-1.9736e-06	-1.1383e-07	6.1174e-08	-5.2661e-08	-1.1717e-06	-2.5767e-07	-1.4294e-06	-3.5371e-07	-3.8882e-07	-7.4254e-07	-5.4695e-07	-7.1214e-07	-1.2591e-06	-3.2571e-07	-4.5192e-07	-7.7763e-07	-2.7797e-07	-2.5835e-07	-5.3632e-07
-1.6771e-06	-1.0433e-06	-2.7205e-06	-1.1029e-06	-6.6057e-09	-1.1095e-06	-2.2322e-06	-7.779e-07	-3.0101e-06	-1.6717e-06	-8.2597e-07	-2.4976e-06	5.3032e-08	2.349e-07	2.8793e-07	1.4045e-07	-2.9115e-07	-1.507e-07	-4.3337e-07	-5.2789e-07	-9.6127e-07	1.0128e-06	3.0408e-07	1.3169e-06	-2.3249e-06	-6.7203e-07	-2.9969e-06	-1.0576e-06	-2.4533e-07	-1.3029e-06	-8.9647e-07	-2.1844e-07	-1.1149e-06	-7.725e-07	-2.1931e-07	-9.9181e-07	-5.8233e-07	-2.3942e-07	-8.2175e-07	-1.6645e-06	-3.2529e-07	-1.9898e-06	-1.1467e-07	6.1918e-08	-5.2753e-08	-1.1811e-06	-2.6012e-07	-1.4412e-06	-3.5564e-07	-3.9255e-07	-7.4819e-07	-5.4914e-07	-7.1883e-07	-1.268e-06	-3.2679e-07	-4.5639e-07	-7.8318e-07	-2.7972e-07	-2.6076e-07	-5.4048e-07
-1.6923e-06	-1.0535e-06	-2.7458e-06	-1.1115e-06	-7.5456e-09	-1.1191e-06	-2.2506e-06	-7.8582e-07	-3.0364e-06	-1.6845e-06	-8.3281e-07	-2.5173e-06	5.2788e-08	2.369e-07	2.8969e-07	1.4126e-07	-2.9389e-07	-1.5263e-07	-4.3639e-07	-5.319e-07	-9.6829e-07	1.0229e-06	3.0639e-07	1.3292e-06	-2.3435e-06	-6.7813e-07	-3.0217e-06	-1.0674e-06	-2.4771e-07	-1.3151e-06	-9.0364e-07	-2.2094e-07	-1.1246e-06	-7.7789e-07	-2.2156e-07	-9.9945e-07	-5.8579e-07	-2.4234e-07	-8.2813e-07	-1.6778e-06	-3.2812e-07	-2.0059e-06	-1.155e-07	6.2663e-08	-5.284e-08	-1.1904e-06	-2.6257e-07	-1.453e-06	-3.5754e-07	-3.9626e-07	-7.538e-07	-5.5124e-07	-7.2549e-07	-1.2767e-06	-3.2781e-07	-4.6085e-07	-7.8866e-07	-2.8146e-07	-2.6315e-07	-5.4461e-07
-1.7074e-06	-1.0636e-06	-2.7709e-06	-1.1201e-06	-8.4998e-09	-1.1286e-06	-2.2689e-06	-7.9371e-07	-3.0626e-06	-1.6972e-06	-8.3961e-07	-2.5368e-06	5.2527e-08	2.3888e-07	2.9141e-07	1.4205e-07	-2.9661e-07	-1.5456e-07	-4.3937e-07	-5.3586e-07	-9.7523e-07	1.0329e-06	3.0868e-07	1.3416e-06	-2.3621e-06	-6.842e-07	-3.0463e-06	-1.0771e-06	-2.5009e-07	-1.3272e-06	-9.1074e-07	-2.2343e-07	-1.1342e-06	-7.8321e-07	-2.2381e-07	-1.007e-06	-5.8919e-07	-2.4526e-07	-8.3445e-07	-1.691e-06	-3.3094e-07	-2.0219e-06	-1.1633e-07	6.3409e-08	-5.292e-08	-1.1996e-06	-2.65e-07	-1.4646e-06	-3.594e-07	-3.9996e-07	-7.5935e-07	-5.5327e-07	-7.3212e-07	-1.2854e-06	-3.2879e-07	-4.6529e-07	-7.9408e-07	-2.8316e-07	-2.6553e-07	-5.4869e-07
-1.7223e-06	-1.0737e-06	-2.796e-06	-1.1285e-06	-9.4679e-09	-1.138e-06	-2.287e-06	-8.0158e-07	-3.0886e-06	-1.7098e-06	-8.4635e-07	-2.5561e-06	5.2249e-08	2.4086e-07	2.9311e-07	1.4282e-07	-2.9932e-07	-1.565e-07	-4.4231e-07	-5.3979e-07	-9.821e-07	1.0429e-06	3.1095e-07	1.3539e-06	-2.3804e-06	-6.9023e-07	-3.0707e-06	-1.0868e-06	-2.5246e-07	-1.3393e-06	-9.1778e-07	-2.2593e-07	-1.1437e-06	-7.8846e-07	-2.2605e-07	-1.0145e-06	-5.9252e-07	-2.4818e-07	-8.407e-07	-1.704e-06	-3.3374e-07	-2.0378e-06	-1.1715e-07	6.4157e-08	-5.2994e-08	-1.2088e-06	-2.6743e-07	-1.4762e-06	-3.6123e-07	-4.0363e-07	-7.6486e-07	-5.5522e-07	-7.3871e-07	-1.2939e-06	-3.2973e-07	-4.6972e-07	-7.9944e-07	-2.8485e-07	-2.6789e-07	-5.5274e-07
-1.7373e-06	-1.0837e-06	-2.8209e-06	-1.137e-06	-1.045e-08	-1.1474e-06	-2.305e-06	-8.0942e-07	-3.1145e-06	-1.7223e-06	-8.5304e-07	-2.5753e-06	5.1952e-08	2.4282e-07	2.9477e-07	1.4358e-07	-3.0201e-07	-1.5843e-07	-4.4522e-07	-5.4367e-07	-9.8889e-07	1.0529e-06	3.132e-07	1.3661e-06	-2.3986e-06	-6.9624e-07	-3.0949e-06	-1.0965e-06	-2.5483e-07	-1.3513e-06	-9.2476e-07	-2.2841e-07	-1.1532e-06	-7.9364e-07	-2.2828e-07	-1.0219e-06	-5.958e-07	-2.5109e-07	-8.4689e-07	-1.717e-06	-3.3652e-07	-2.0535e-06	-1.1797e-07	6.4906e-08	-5.3063e-08	-1.2179e-06	-2.6984e-07	-1.4877e-06	-3.6302e-07	-4.0729e-07	-7.7031e-07	-5.571e-07	-7.4526e-07	-1.3024e-06	-3.3062e-07	-4.7413e-07	-8.0474e-07	-2.8652e-07	-2.7024e-07	-5.5676e-07
-1.7521e-06	-1.0937e-06	-2.8458e-06	-1.1453e-06	-1.1446e-08	-1.1567e-06	-2.3229e-06	-8.1724e-07	-3.1402e-06	-1.7346e-06	-8.5969e-07	-2.5943e-06	5.1639e-08	2.4476e-07	2.964e-07	1.4432e-07	-3.0469e-07	-1.6037e-07	-4.4809e-07	-5.4751e-07	-9.956e-07	1.0628e-06	3.1544e-07	1.3783e-06	-2.4167e-06	-7.0221e-07	-3.1189e-06	-1.1062e-06	-2.5718e-07	-1.3633e-06	-9.3168e-07	-2.309e-07	-1.1626e-06	-7.9876e-07	-2.305e-07	-1.0293e-06	-5.9901e-07	-2.5401e-07	-8.5302e-07	-1.7298e-06	-3.3928e-07	-2.0691e-06	-1.1878e-07	6.5657e-08	-5.3126e-08	-1.2269e-06	-2.7224e-07	-1.4991e-06	-3.6478e-07	-4.1093e-07	-7.7572e-07	-5.5889e-07	-7.5178e-07	-1.3107e-06	-3.3146e-07	-4.7852e-07	-8.0998e-07	-2.8816e-07	-2.7257e-07	-5.6073e-07
-1.7668e-06	-1.1036e-06	-2.8705e-06	-1.1535e-06	-1.2455e-08	-1.166e-06	-2.3407e-06	-8.2503e-07	-3.1657e-06	-1.7468e-06	-8.6628e-07	-2.6131e-06	5.1307e-08	2.4669e-07	2.98e-07	1.4504e-07	-3.0735e-07	-1.6231e-07	-4.5093e-07	-5.513e-07	-1.0022e-06	1.0728e-06	3.1765e-07	1.3904e-06	-2.4346e-06	-7.0816e-07	-3.1428e-06	-1.1158e-06	-2.5953e-07	-1.3753e-06	-9.3854e-07	-2.3337e-07	-1.1719e-06	-8.038e-07	-2.3272e-07	-1.0365e-06	-6.0216e-07	-2.5693e-07	-8.5909e-07	-1.7425e-06	-3.4202e-07	-2.0845e-06	-1.1959e-07	6.6409e-08	-5.3184e-08	-1.2358e-06	-2.7463e-07	-1.5104e-06	-3.6651e-07	-4.1456e-07	-7.8107e-07	-5.6061e-07	-7.5827e-07	-1.3189e-06	-3.3226e-07	-4.8289e-07	-8.1516e-07	-2.8979e-07	-2.7489e-07	-5.6467e-07
-1.7815e-06	-1.1135e-06	-2.895e-06	-1.1617e-06	-1.3478e-08	-1.1752e-06	-2.3583e-06	-8.328e-07	-3.1911e-06	-1.7589e-06	-8.7282e-07	-2.6317e-06	5.0958e-08	2.4861e-07	2.9957e-07	1.4575e-07	-3.1e-07	-1.6424e-07	-4.5374e-07	-5.5506e-07	-1.0088e-06	1.0826e-06	3.1984e-07	1.4025e-06	-2.4524e-06	-7.1407e-07	-3.1665e-06	-1.1253e-06	-2.6186e-07	-1.3872e-06	-9.4533e-07	-2.3585e-07	-1.1812e-06	-8.0877e-07	-2.3492e-07	-1.0437e-06	-6.0525e-07	-2.5984e-07	-8.6509e-07	-1.7551e-06	-3.4474e-07	-2.0999e-06	-1.204e-07	6.7162e-08	-5.3236e-08	-1.2447e-06	-2.7701e-07	-1.5217e-06	-3.6821e-07	-4.1816e-07	-7.8637e-07	-5.6226e-07	-7.6472e-07	-1.327e-06	-3.3302e-07	-4.8725e-07	-8.2027e-07	-2.9139e-07	-2.7719e-07	-5.6858e-07
-1.7961e-06	-1.1234e-06	-2.9195e-06	-1.1698e-06	-1.4514e-08	-1.1844e-06	-2.3758e-06	-8.4053e-07	-3.2163e-06	-1.7709e-06	-8.7931e-07	-2.6502e-06	5.0591e-08	2.5052e-07	3.0111e-07	1.4645e-07	-3.1263e-07	-1.6618e-07	-4.5651e-07	-5.5877e-07	-1.0153e-06	1.0925e-06	3.2201e-07	1.4145e-06	-2.47e-06	-7.1995e-07	-3.1899e-06	-1.1348e-06	-2.6419e-07	-1.399e-06	-9.5205e-07	-2.3832e-07	-1.1904e-06	-8.1367e-07	-2.3712e-07	-1.0508e-06	-6.0827e-07	-2.6275e-07	-8.7102e-07	-1.7676e-06	-3.4744e-07	-2.1151e-06	-1.212e-07	6.7917e-08	-5.3283e-08	-1.2534e-06	-2.7937e-07	-1.5328e-06	-3.6987e-07	-4.2175e-07	-7.9162e-07	-5.6382e-07	-7.7114e-07	-1.335e-06	-3.3373e-07	-4.9159e-07	-8.2533e-07	-2.9297e-07	-2.7947e-07	-5.7244e-07
-1.8106e-06	-1.1332e-06	-2.9438e-06	-1.1779e-06	-1.5562e-08	-1.1934e-06	-2.3931e-06	-8.4824e-07	-3.2413e-06	-1.7828e-06	-8.8575e-07	-2.6685e-06	5.0207e-08	2.5241e-07	3.0262e-07	1.4713e-07	-3.1525e-07	-1.6812e-07	-4.5925e-07	-5.6244e-07	-1.0217e-06	1.1023e-06	3.2416e-07	1.4265e-06	-2.4875e-06	-7.2579e-07	-3.2132e-06	-1.1443e-06	-2.6651e-07	-1.4109e-06	-9.5872e-07	-2.4078e-07	-1.1995e-06	-8.185e-07	-2.3931e-07	-1.0578e-06	-6.1124e-07	-2.6566e-07	-8.7689e-07	-1.78e-06	-3.5013e-07	-2.1302e-06	-1.22e-07	6.8673e-08	-5.3325e-08	-1.2621e-06	-2.8172e-07	-1.5439e-06	-3.7151e-07	-4.2532e-07	-7.9682e-07	-5.6531e-07	-7.7752e-07	-1.3428e-06	-3.344e-07	-4.9591e-07	-8.3032e-07	-2.9454e-07	-2.8174e-07	-5.7627e-07
-1.825e-06	-1.143e-06	-2.968e-06	-1.1858e-06	-1.6624e-08	-1.2025e-06	-2.4103e-06	-8.5592e-07	-3.2662e-06	-1.7945e-06	-8.9214e-07	-2.6866e-06	4.9806e-08	2.5429e-07	3.041e-07	1.4779e-07	-3.1785e-07	-1.7006e-07	-4.6195e-07	-5.6607e-07	-1.028e-06	1.1121e-06	3.2629e-07	1.4384e-06	-2.5048e-06	-7.3161e-07	-3.2364e-06	-1.1538e-06	-2.6883e-07	-1.4226e-06	-9.6532e-07	-2.4324e-07	-1.2086e-06	-8.2327e-07	-2.4149e-07	-1.0648e-06	-6.1414e-07	-2.6856e-07	-8.827e-07	-1.7923e-06	-3.5279e-07	-2.1451e-06	-1.2279e-07	6.943e-08	-5.3362e-08	-1.2708e-06	-2.8406e-07	-1.5548e-06	-3.7311e-07	-4.2887e-07	-8.0197e-07	-5.6673e-07	-7.8386e-07	-1.3506e-06	-3.3503e-07	-5.0022e-07	-8.3525e-07	-2.9608e-07	-2.8399e-07	-5.8007e-07
-1.8393e-06	-1.1528e-06	-2.992e-06	-1.1937e-06	-1.7698e-08	-1.2114e-06	-2.4273e-06	-8.6357e-07	-3.2909e-06	-1.8061e-06	-8.9848e-07	-2.7046e-06	4.9386e-08	2.5616e-07	3.0554e-07	1.4844e-07	-3.2044e-07	-1.7199e-07	-4.6462e-07	-5.6965e-07	-1.0343e-06	1.1219e-06	3.284e-07	1.4503e-06	-2.5219e-06	-7.3739e-07	-3.2593e-06	-1.1632e-06	-2.7113e-07	-1.4343e-06	-9.7185e-07	-2.4569e-07	-1.2175e-06	-8.2796e-07	-2.4366e-07	-1.0716e-06	-6.1698e-07	-2.7146e-07	-8.8844e-07	-1.8045e-06	-3.5543e-07	-2.1599e-06	-1.2358e-07	7.0189e-08	-5.3394e-08	-1.2793e-06	-2.8639e-07	-1.5657e-06	-3.7468e-07	-4.324e-07	-8.0707e-07	-5.6806e-07	-7.9017e-07	-1.3582e-06	-3.3561e-07	-5.0451e-07	-8.4012e-07	-2.976e-07	-2.8622e-07	-5.8382e-07
-1.8535e-06	-1.1624e-06	-3.016e-06	-1.2016e-06	-1.8785e-08	-1.2203e-06	-2.4443e-06	-8.712e-07	-3.3155e-06	-1.8176e-06	-9.0476e-07	-2.7224e-06	4.8949e-08	2.5801e-07	3.0696e-07	1.4908e-07	-3.2301e-07	-1.7393e-07	-4.6725e-07	-5.732e-07	-1.0404e-06	1.1316e-06	3.3049e-07	1.4621e-06	-2.5389e-06	-7.4314e-07	-3.282e-06	-1.1726e-06	-2.7343e-07	-1.446e-06	-9.7832e-07	-2.4813e-07	-1.2265e-06	-8.3257e-07	-2.4582e-07	-1.0784e-06	-6.1975e-07	-2.7436e-07	-8.9412e-07	-1.8165e-06	-3.5806e-07	-2.1746e-06	-1.2437e-07	7.0949e-08	-5.3422e-08	-1.2878e-06	-2.8871e-07	-1.5765e-06	-3.7622e-07	-4.3591e-07	-8.1212e-07	-5.6932e-07	-7.9644e-07	-1.3658e-06	-3.3615e-07	-5.0877e-07	-8.4493e-07	-2.991e-07	-2.8844e-07	-5.8754e-07
-1.8677e-06	-1.1721e-06	-3.0398e-06	-1.2093e-06	-1.9884e-08	-1.2292e-06	-2.461e-06	-8.7879e-07	-3.3398e-06	-1.829e-06	-9.11e-07	-2.74e-06	4.8495e-08	2.5985e-07	3.0834e-07	1.497e-07	-3.2556e-07	-1.7587e-07	-4.6985e-07	-5.7669e-07	-1.0465e-06	1.1413e-06	3.3256e-07	1.4738e-06	-2.5557e-06	-7.4886e-07	-3.3046e-06	-1.1819e-06	-2.7571e-07	-1.4576e-06	-9.8473e-07	-2.5057e-07	-1.2353e-06	-8.3712e-07	-2.4797e-07	-1.0851e-06	-6.2247e-07	-2.7726e-07	-8.9973e-07	-1.8285e-06	-3.6066e-07	-2.1891e-06	-1.2516e-07	7.171e-08	-5.3445e-08	-1.2961e-06	-2.9101e-07	-1.5872e-06	-3.7772e-07	-4.394e-07	-8.1712e-07	-5.7051e-07	-8.0267e-07	-1.3732e-06	-3.3665e-07	-5.1303e-07	-8.4967e-07	-3.0058e-07	-2.9064e-07	-5.9123e-07
-1.8818e-06	-1.1817e-06	-3.0635e-06	-1.217e-06	-2.0995e-08	-1.238e-06	-2.4777e-06	-8.8635e-07	-3.364e-06	-1.8402e-06	-9.1718e-07	-2.7574e-06	4.8023e-08	2.6167e-07	3.0969e-07	1.503e-07	-3.281e-07	-1.778e-07	-4.7241e-07	-5.8015e-07	-1.0526e-06	1.1509e-06	3.346e-07	1.4855e-06	-2.5724e-06	-7.5454e-07	-3.3269e-06	-1.1912e-06	-2.7799e-07	-1.4692e-06	-9.9107e-07	-2.5301e-07	-1.2441e-06	-8.416e-07	-2.5011e-07	-1.0917e-06	-6.2512e-07	-2.8015e-07	-9.0527e-07	-1.8403e-06	-3.6324e-07	-2.2036e-06	-1.2594e-07	7.2473e-08	-5.3463e-08	-1.3044e-06	-2.933e-07	-1.5977e-06	-3.792e-07	-4.4287e-07	-8.2207e-07	-5.7162e-07	-8.0887e-07	-1.3805e-06	-3.371e-07	-5.1726e-07	-8.5436e-07	-3.0204e-07	-2.9283e-07	-5.9487e-07
-1.8957e-06	-1.1913e-06	-3.087e-06	-1.2246e-06	-2.2119e-08	-1.2467e-06	-2.4942e-06	-8.9388e-07	-3.3881e-06	-1.8513e-06	-9.2331e-07	-2.7746e-06	4.7534e-08	2.6348e-07	3.1102e-07	1.5089e-07	-3.3062e-07	-1.7973e-07	-4.7494e-07	-5.8356e-07	-1.0585e-06	1.1605e-06	3.3663e-07	1.4972e-06	-2.5889e-06	-7.6019e-07	-3.3491e-06	-1.2005e-06	-2.8026e-07	-1.4808e-06	-9.9734e-07	-2.5544e-07	-1.2528e-06	-8.46e-07	-2.5224e-07	-1.0982e-06	-6.2771e-07	-2.8304e-07	-9.1075e-07	-1.852e-06	-3.658e-07	-2.2178e-06	-1.2672e-07	7.3237e-08	-5.3478e-08	-1.3127e-06	-2.9558e-07	-1.6082e-06	-3.8064e-07	-4.4632e-07	-8.2696e-07	-5.7265e-07	-8.1502e-07	-1.3877e-06	-3.3751e-07	-5.2147e-07	-8.5898e-07	-3.0348e-07	-2.95e-07	-5.9848e-07
-1.9096e-06	-1.2008e-06	-3.1104e-06	-1.2321e-06	-2.3253e-08	-1.2554e-06	-2.5105e-06	-9.0138e-07	-3.4119e-06	-1.8623e-06	-9.2939e-07	-2.7917e-06	4.7027e-08	2.6528e-07	3.1231e-07	1.5147e-07	-3.3313e-07	-1.8166e-07	-4.7744e-07	-5.8693e-07	-1.0644e-06	1.1701e-06	3.3864e-07	1.5088e-06	-2.6053e-06	-7.6581e-07	-3.3711e-06	-1.2097e-06	-2.8252e-07	-1.4922e-06	-1.0036e-06	-2.5786e-07	-1.2614e-06	-8.5034e-07	-2.5436e-07	-1.1047e-06	-6.3024e-07	-2.8593e-07	-9.1616e-07	-1.8636e-06	-3.6834e-07	-2.232e-06	-1.2749e-07	7.4002e-08	-5.3488e-08	-1.3208e-06	-2.9785e-07	-1.6187e-06	-3.8205e-07	-4.4976e-07	-8.3181e-07	-5.7361e-07	-8.2114e-07	-1.3948e-06	-3.3788e-07	-5.2567e-07	-8.6355e-07	-3.049e-07	-2.9715e-07	-6.0205e-07
-1.9234e-06	-1.2102e-06	-3.1337e-06	-1.2396e-06	-2.44e-08	-1.264e-06	-2.5268e-06	-9.0885e-07	-3.4356e-06	-1.8732e-06	-9.3541e-07	-2.8086e-06	4.6503e-08	2.6706e-07	3.1357e-07	1.5203e-07	-3.3562e-07	-1.8359e-07	-4.799e-07	-5.9026e-07	-1.0702e-06	1.1797e-06	3.4063e-07	1.5203e-06	-2.6215e-06	-7.7139e-07	-3.3929e-06	-1.2189e-06	-2.8477e-07	-1.5037e-06	-1.0097e-06	-2.6027e-07	-1.27e-06	-8.546e-07	-2.5647e-07	-1.1111e-06	-6.327e-07	-2.8881e-07	-9.2151e-07	-1.8751e-06	-3.7086e-07	-2.246e-06	-1.2826e-07	7.4769e-08	-5.3495e-08	-1.3289e-06	-3.001e-07	-1.629e-06	-3.8344e-07	-4.5317e-07	-8.3661e-07	-5.7449e-07	-8.2723e-07	-1.4017e-06	-3.3821e-07	-5.2984e-07	-8.6805e-07	-3.0631e-07	-2.9928e-07	-6.0559e-07
-1.9372e-06	-1.2196e-06	-3.1568e-06	-1.2469e-06	-2.5557e-08	-1.2725e-06	-2.5428e-06	-9.1629e-07	-3.4591e-06	-1.8839e-06	-9.4138e-07	-2.8253e-06	4.5962e-08	2.6883e-07	3.1479e-07	1.5257e-07	-3.3809e-07	-1.8552e-07	-4.8232e-07	-5.9354e-07	-1.0759e-06	1.1892e-06	3.426e-07	1.5318e-06	-2.6375e-06	-7.7694e-07	-3.4145e-06	-1.2281e-06	-2.8701e-07	-1.5151e-06	-1.0158e-06	-2.6268e-07	-1.2785e-06	-8.5879e-07	-2.5857e-07	-1.1174e-06	-6.3511e-07	-2.9168e-07	-9.2679e-07	-1.8865e-06	-3.7337e-07	-2.2599e-06	-1.2903e-07	7.5537e-08	-5.3497e-08	-1.3369e-06	-3.0234e-07	-1.6392e-06	-3.8479e-07	-4.5656e-07	-8.4135e-07	-5.753e-07	-8.3327e-07	-1.4086e-06	-3.3849e-07	-5.34e-07	-8.7249e-07	-3.0769e-07	-3.014e-07	-6.0909e-07
-1.9508e-06	-1.229e-06	-3.1798e-06	-1.2542e-06	-2.6726e-08	-1.281e-06	-2.5588e-06	-9.2369e-07	-3.4825e-06	-1.8946e-06	-9.473e-07	-2.8419e-06	4.5403e-08	2.7059e-07	3.1599e-07	1.5311e-07	-3.4055e-07	-1.8744e-07	-4.8471e-07	-5.9677e-07	-1.0815e-06	1.1986e-06	3.4455e-07	1.5432e-06	-2.6534e-06	-7.8245e-07	-3.4359e-06	-1.2372e-06	-2.8924e-07	-1.5264e-06	-1.0218e-06	-2.6508e-07	-1.2869e-06	-8.6291e-07	-2.6066e-07	-1.1236e-06	-6.3745e-07	-2.9456e-07	-9.32e-07	-1.8978e-06	-3.7584e-07	-2.2736e-06	-1.298e-07	7.6306e-08	-5.3497e-08	-1.3448e-06	-3.0457e-07	-1.6493e-06	-3.8611e-07	-4.5993e-07	-8.4605e-07	-5.7603e-07	-8.3928e-07	-1.4153e-06	-3.3874e-07	-5.3814e-07	-8.7687e-07	-3.0905e-07	-3.035e-07	-6.1255e-07
-1.9643e-06	-1.2383e-06	-3.2027e-06	-1.2615e-06	-2.7906e-08	-1.2894e-06	-2.5746e-06	-9.3106e-07	-3.5056e-06	-1.905e-06	-9.5317e-07	-2.8582e-06	4.4827e-08	2.7233e-07	3.1716e-07	1.5362e-07	-3.4299e-07	-1.8936e-07	-4.8707e-07	-5.9997e-07	-1.087e-06	1.2081e-06	3.4647e-07	1.5546e-06	-2.6691e-06	-7.8793e-07	-3.4571e-06	-1.2462e-06	-2.9147e-07	-1.5377e-06	-1.0277e-06	-2.6747e-07	-1.2952e-06	-8.6695e-07	-2.6274e-07	-1.1297e-06	-6.3973e-07	-2.9742e-07	-9.3715e-07	-1.909e-06	-3.783e-07	-2.2873e-06	-1.3057e-07	7.7076e-08	-5.3492e-08	-1.3526e-06	-3.0678e-07	-1.6594e-06	-3.8741e-07	-4.6328e-07	-8.5069e-07	-5.7669e-07	-8.4524e-07	-1.4219e-06	-3.3894e-07	-5.4226e-07	-8.812e-07	-3.1039e-07	-3.0558e-07	-6.1597e-07
-1.9778e-06	-1.2476e-06	-3.2254e-06	-1.2686e-06	-2.9096e-08	-1.2977e-06	-2.5902e-06	-9.384e-07	-3.5286e-06	-1.9154e-06	-9.5898e-07	-2.8744e-06	4.4234e-08	2.7406e-07	3.1829e-07	1.5413e-07	-3.4541e-07	-1.9128e-07	-4.8939e-07	-6.0312e-07	-1.0925e-06	1.2175e-06	3.4838e-07	1.5659e-06	-2.6847e-06	-7.9337e-07	-3.4781e-06	-1.2553e-06	-2.9368e-07	-1.5489e-06	-1.0336e-06	-2.6986e-07	-1.3035e-06	-8.7092e-07	-2.6481e-07	-1.1357e-06	-6.4194e-07	-3.0029e-07	-9.4223e-07	-1.92e-06	-3.8074e-07	-2.3007e-06	-1.3133e-07	7.7848e-08	-5.3484e-08	-1.3603e-06	-3.0898e-07	-1.6693e-06	-3.8867e-07	-4.6662e-07	-8.5529e-07	-5.7728e-07	-8.5117e-07	-1.4284e-06	-3.391e-07	-5.4635e-07	-8.8546e-07	-3.1171e-07	-3.0765e-07	-6.1936e-07
-1.9911e-06	-1.2568e-06	-3.248e-06	-1.2757e-06	-3.0297e-08	-1.306e-06	-2.6057e-06	-9.457e-07	-3.5514e-06	-1.9257e-06	-9.6474e-07	-2.8904e-06	4.3624e-08	2.7577e-07	3.1939e-07	1.5462e-07	-3.4781e-07	-1.932e-07	-4.9168e-07	-6.0622e-07	-1.0979e-06	1.2268e-06	3.5027e-07	1.5771e-06	-2.7001e-06	-7.9878e-07	-3.4989e-06	-1.2643e-06	-2.9588e-07	-1.5601e-06	-1.0394e-06	-2.7224e-07	-1.3117e-06	-8.7482e-07	-2.6687e-07	-1.1417e-06	-6.441e-07	-3.0314e-07	-9.4724e-07	-1.9309e-06	-3.8316e-07	-2.3141e-06	-1.3209e-07	7.862e-08	-5.3473e-08	-1.368e-06	-3.1117e-07	-1.6792e-06	-3.899e-07	-4.6993e-07	-8.5983e-07	-5.7779e-07	-8.5706e-07	-1.4348e-06	-3.3922e-07	-5.5043e-07	-8.8966e-07	-3.1302e-07	-3.0969e-07	-6.2271e-07
-2.0044e-06	-1.266e-06	-3.2704e-06	-1.2827e-06	-3.1508e-08	-1.3142e-06	-2.6211e-06	-9.5297e-07	-3.5741e-06	-1.9358e-06	-9.7045e-07	-2.9062e-06	4.2996e-08	2.7747e-07	3.2047e-07	1.5509e-07	-3.502e-07	-1.9511e-07	-4.9394e-07	-6.0928e-07	-1.1032e-06	1.2362e-06	3.5214e-07	1.5883e-06	-2.7154e-06	-8.0416e-07	-3.5195e-06	-1.2732e-06	-2.9807e-07	-1.5713e-06	-1.0452e-06	-2.7461e-07	-1.3198e-06	-8.7865e-07	-2.6891e-07	-1.1476e-06	-6.4619e-07	-3.06e-07	-9.5219e-07	-1.9418e-06	-3.8555e-07	-2.3273e-06	-1.3285e-07	7.9394e-08	-5.3459e-08	-1.3756e-06	-3.1335e-07	-1.6889e-06	-3.9111e-07	-4.7322e-07	-8.6432e-07	-5.7823e-07	-8.6291e-07	-1.4411e-06	-3.393e-07	-5.5449e-07	-8.938e-07	-3.143e-07	-3.1172e-07	-6.2602e-07
-2.0176e-06	-1.2751e-06	-3.2927e-06	-1.2897e-06	-3.2729e-08	-1.3224e-06	-2.6363e-06	-9.602e-07	-3.5965e-06	-1.9458e-06	-9.761e-07	-2.9219e-06	4.2352e-08	2.7916e-07	3.2151e-07	1.5556e-07	-3.5257e-07	-1.9702e-07	-4.9616e-07	-6.123e-07	-1.1085e-06	1.2454e-06	3.5399e-07	1.5994e-06	-2.7305e-06	-8.0949e-07	-3.54e-06	-1.2821e-06	-3.0026e-07	-1.5824e-06	-1.0509e-06	-2.7697e-07	-1.3278e-06	-8.8241e-07	-2.7095e-07	-1.1534e-06	-6.4822e-07	-3.0884e-07	-9.5707e-07	-1.9525e-06	-3.8793e-07	-2.3404e-06	-1.3361e-07	8.017e-08	-5.3442e-08	-1.3831e-06	-3.1551e-07	-1.6986e-06	-3.9228e-07	-4.7648e-07	-8.6877e-07	-5.7859e-07	-8.6872e-07	-1.4473e-06	-3.3934e-07	-5.5853e-07	-8.9788e-07	-3.1557e-07	-3.1373e-07	-6.293e-07
-2.0307e-06	-1.2842e-06	-3.3149e-06	-1.2965e-06	-3.396e-08	-1.3305e-06	-2.6514e-06	-9.674e-07	-3.6188e-06	-1.9556e-06	-9.817e-07	-2.9373e-06	4.169e-08	2.8083e-07	3.2252e-07	1.56e-07	-3.5493e-07	-1.9892e-07	-4.9834e-07	-6.1527e-07	-1.1136e-06	1.2547e-06	3.5582e-07	1.6105e-06	-2.7454e-06	-8.148e-07	-3.5602e-06	-1.291e-06	-3.0243e-07	-1.5934e-06	-1.0565e-06	-2.7933e-07	-1.3358e-06	-8.8609e-07	-2.7297e-07	-1.1591e-06	-6.5019e-07	-3.1168e-07	-9.6188e-07	-1.9631e-06	-3.9028e-07	-2.3533e-06	-1.3437e-07	8.0946e-08	-5.3423e-08	-1.3905e-06	-3.1766e-07	-1.7082e-06	-3.9343e-07	-4.7973e-07	-8.7316e-07	-5.7889e-07	-8.7449e-07	-1.4534e-06	-3.3935e-07	-5.6255e-07	-9.019e-07	-3.1681e-07	-3.1573e-07	-6.3254e-07
-2.0437e-06	-1.2932e-06	-3.3369e-06	-1.3033e-06	-3.5201e-08	-1.3385e-06	-2.6664e-06	-9.7456e-07	-3.6409e-06	-1.9654e-06	-9.8725e-07	-2.9526e-06	4.1012e-08	2.8248e-07	3.235e-07	1.5644e-07	-3.5726e-07	-2.0082e-07	-5.005e-07	-6.182e-07	-1.1187e-06	1.2639e-06	3.5762e-07	1.6215e-06	-2.7602e-06	-8.2006e-07	-3.5802e-06	-1.2998e-06	-3.0459e-07	-1.6044e-06	-1.062e-06	-2.8168e-07	-1.3437e-06	-8.897e-07	-2.7499e-07	-1.1647e-06	-6.521e-07	-3.1452e-07	-9.6662e-07	-1.9735e-06	-3.9261e-07	-2.3661e-06	-1.3512e-07	8.1723e-08	-5.34e-08	-1.3979e-06	-3.1979e-07	-1.7177e-06	-3.9455e-07	-4.8296e-07	-8.7751e-07	-5.7911e-07	-8.8021e-07	-1.4593e-06	-3.3931e-07	-5.6655e-07	-9.0586e-07	-3.1804e-07	-3.177e-07	-6.3574e-07
