HbO,1,1	HbR,1,1	HbT,1,1	HbO,1,2	HbR,1,2	HbT,1,2	HbO,1,3	HbR,1,3	HbT,1,3	HbO,2,2	HbR,2,2	HbT,2,2	HbO,2,4	HbR,2,4	HbT,2,4	HbO,3,1	HbR,3,1	HbT,3,1	HbO,3,3	HbR,3,3	HbT,3,3	HbO,4,2	HbR,4,2	HbT,4,2	HbO,4,3	HbR,4,3	HbT,4,3	HbO,4,4	HbR,4,4	HbT,4,4	HbO,5,5	HbR,5,5	HbT,5,5	HbO,5,6	HbR,5,6	HbT,5,6	HbO,5,7	HbR,5,7	HbT,5,7	HbO,6,6	HbR,6,6	HbT,6,6	HbO,6,8	HbR,6,8	HbT,6,8	HbO,7,5	HbR,7,5	HbT,7,5	HbO,7,7	HbR,7,7	HbT,7,7	HbO,8,6	HbR,8,6	HbT,8,6	HbO,8,7	HbR,8,7	HbT,8,7	HbO,8,8	HbR,8,8	HbT,8,8	
-7.2066e-08	-3.4776e-08	-1.0684e-07	-1.3229e-07	-6.0399e-08	-1.9269e-07	4.051e-08	-4.07e-08	-1.8979e-10	3.4886e-07	1.6565e-08	3.6543e-07	1.2391e-07	-1.9667e-08	1.0425e-07	-6.7783e-08	4.636e-08	-2.1422e-08	7.9465e-08	-6.1838e-08	1.7627e-08	2.2654e-07	-2.7485e-08	1.9905e-07	2.7285e-07	-6.47e-08	2.0815e-07	5.9209e-08	-3.95e-08	1.9709e-08	-6.2513e-08	-9.5548e-08	-1.5806e-07	7.3266e-08	-7.1052e-08	2.2141e-09	1.3972e-07	-1.8751e-08	1.2097e-07	8.1472e-08	-1.4809e-07	-6.6614e-08	2.3608e-07	-8.8393e-08	1.4769e-07	-3.5556e-08	-5.1887e-08	-8.7443e-08	5.3986e-08	1.03e-08	6.4286e-08	7.8856e-08	-4.9835e-08	2.9021e-08	2.2323e-07	-2.8555e-08	1.9467e-07	4.3281e-08	-8.5074e-08	-4.1793e-08
-7.0329e-08	-3.4103e-08	-1.0443e-07	-1.2902e-07	-5.9109e-08	-1.8813e-07	3.9887e-08	-3.9787e-08	1.0022e-10	3.4201e-07	1.6451e-08	3.5847e-07	1.2107e-07	-1.9116e-08	1.0195e-07	-6.6324e-08	4.5328e-08	-2.0996e-08	7.787e-08	-6.0533e-08	1.7337e-08	2.2144e-07	-2.6887e-08	1.9455e-07	2.665e-07	-6.338e-08	2.0312e-07	5.7374e-08	-3.8531e-08	1.8843e-08	-6.0738e-08	-9.4098e-08	-1.5484e-07	7.1897e-08	-7.003e-08	1.8667e-09	1.3721e-07	-1.8217e-08	1.1899e-07	7.9607e-08	-1.4493e-07	-6.5326e-08	2.307e-07	-8.6325e-08	1.4437e-07	-3.4516e-08	-5.0963e-08	-8.5478e-08	5.2796e-08	1.0011e-08	6.2808e-08	7.7075e-08	-4.882e-08	2.8255e-08	2.1835e-07	-2.7846e-08	1.905e-07	4.2123e-08	-8.3165e-08	-4.1042e-08
-6.8599e-08	-3.3427e-08	-1.0203e-07	-1.2577e-07	-5.7819e-08	-1.8359e-07	3.9256e-08	-3.8875e-08	3.8164e-10	3.3514e-07	1.6327e-08	3.5147e-07	1.1823e-07	-1.8569e-08	9.9658e-08	-6.4866e-08	4.4299e-08	-2.0567e-08	7.6272e-08	-5.9228e-08	1.7045e-08	2.1635e-07	-2.6288e-08	1.9006e-07	2.6016e-07	-6.2059e-08	1.981e-07	5.5559e-08	-3.7566e-08	1.7993e-08	-5.8979e-08	-9.263e-08	-1.5161e-07	7.0522e-08	-6.8994e-08	1.5281e-09	1.3467e-07	-1.7687e-08	1.1699e-07	7.7749e-08	-1.4178e-07	-6.403e-08	2.2532e-07	-8.4262e-08	1.4106e-07	-3.3488e-08	-5.0033e-08	-8.352e-08	5.1607e-08	9.7247e-09	6.1331e-08	7.53e-08	-4.7803e-08	2.7497e-08	2.1348e-07	-2.7139e-08	1.8634e-07	4.0974e-08	-8.1259e-08	-4.0285e-08
-6.6876e-08	-3.275e-08	-9.9626e-08	-1.2254e-07	-5.653e-08	-1.7907e-07	3.8618e-08	-3.7964e-08	6.5443e-10	3.2825e-07	1.6194e-08	3.4445e-07	1.1539e-07	-1.8024e-08	9.7368e-08	-6.3409e-08	4.3272e-08	-2.0137e-08	7.4671e-08	-5.7922e-08	1.6749e-08	2.1126e-07	-2.5689e-08	1.8557e-07	2.5384e-07	-6.0735e-08	1.9311e-07	5.3764e-08	-3.6605e-08	1.716e-08	-5.7236e-08	-9.1146e-08	-1.4838e-07	6.9141e-08	-6.7943e-08	1.1984e-09	1.3213e-07	-1.7161e-08	1.1497e-07	7.5898e-08	-1.3862e-07	-6.2727e-08	2.1996e-07	-8.2204e-08	1.3775e-07	-3.2472e-08	-4.9096e-08	-8.1568e-08	5.0417e-08	9.4409e-09	5.9858e-08	7.3532e-08	-4.6784e-08	2.6747e-08	2.0861e-07	-2.6436e-08	1.8218e-07	3.9833e-08	-7.9355e-08	-3.9522e-08
-6.516e-08	-3.207e-08	-9.723e-08	-1.1933e-07	-5.5242e-08	-1.7457e-07	3.7972e-08	-3.7053e-08	9.1855e-10	3.2134e-07	1.6051e-08	3.3739e-07	1.1256e-07	-1.7484e-08	9.5081e-08	-6.1953e-08	4.2249e-08	-1.9705e-08	7.3067e-08	-5.6617e-08	1.645e-08	2.0619e-07	-2.509e-08	1.811e-07	2.4754e-07	-5.941e-08	1.8813e-07	5.1989e-08	-3.5647e-08	1.6343e-08	-5.5509e-08	-8.9645e-08	-1.4515e-07	6.7755e-08	-6.6877e-08	8.7762e-10	1.2957e-07	-1.664e-08	1.1293e-07	7.4053e-08	-1.3547e-07	-6.1417e-08	2.1461e-07	-8.0152e-08	1.3446e-07	-3.1469e-08	-4.8153e-08	-7.9622e-08	4.9228e-08	9.1598e-09	5.8388e-08	7.177e-08	-4.5764e-08	2.6006e-08	2.0375e-07	-2.5736e-08	1.7802e-07	3.8701e-08	-7.7454e-08	-3.8754e-08
-6.3452e-08	-3.1388e-08	-9.484e-08	-1.1614e-07	-5.3955e-08	-1.701e-07	3.7318e-08	-3.6144e-08	1.174e-09	3.144e-07	1.5899e-08	3.303e-07	1.0974e-07	-1.6946e-08	9.2798e-08	-6.0498e-08	4.1228e-08	-1.927e-08	7.146e-08	-5.5311e-08	1.6149e-08	2.0113e-07	-2.449e-08	1.7664e-07	2.4126e-07	-5.8083e-08	1.8318e-07	5.0235e-08	-3.4693e-08	1.5542e-08	-5.3797e-08	-8.8128e-08	-1.4192e-07	6.6363e-08	-6.5797e-08	5.6583e-10	1.2699e-07	-1.6123e-08	1.1087e-07	7.2214e-08	-1.3231e-07	-6.0101e-08	2.0928e-07	-7.8106e-08	1.3117e-07	-3.0478e-08	-4.7204e-08	-7.7683e-08	4.8039e-08	8.8814e-09	5.692e-08	7.0014e-08	-4.4741e-08	2.5273e-08	1.989e-07	-2.5039e-08	1.7386e-07	3.7576e-08	-7.5556e-08	-3.798e-08
-6.1751e-08	-3.0705e-08	-9.2456e-08	-1.1297e-07	-5.2668e-08	-1.6564e-07	3.6657e-08	-3.5236e-08	1.4207e-09	3.0745e-07	1.5738e-08	3.2319e-07	1.0693e-07	-1.6412e-08	9.0519e-08	-5.9045e-08	4.021e-08	-1.8834e-08	6.985e-08	-5.4006e-08	1.5844e-08	1.9608e-07	-2.389e-08	1.7219e-07	2.35e-07	-5.6755e-08	1.7825e-07	4.85e-08	-3.3743e-08	1.4758e-08	-5.21e-08	-8.6594e-08	-1.3869e-07	6.4966e-08	-6.4703e-08	2.6309e-10	1.2441e-07	-1.5611e-08	1.0879e-07	7.0382e-08	-1.2916e-07	-5.8777e-08	2.0396e-07	-7.6066e-08	1.279e-07	-2.95e-08	-4.625e-08	-7.5749e-08	4.685e-08	8.6055e-09	5.5456e-08	6.8265e-08	-4.3717e-08	2.4549e-08	1.9405e-07	-2.4346e-08	1.697e-07	3.6461e-08	-7.3661e-08	-3.72e-08
-6.0058e-08	-3.0019e-08	-9.0077e-08	-1.0981e-07	-5.1383e-08	-1.612e-07	3.5988e-08	-3.4329e-08	1.6586e-09	3.0048e-07	1.5568e-08	3.1604e-07	1.0412e-07	-1.5882e-08	8.8243e-08	-5.7592e-08	3.9195e-08	-1.8396e-08	6.8237e-08	-5.27e-08	1.5537e-08	1.9103e-07	-2.3291e-08	1.6774e-07	2.2876e-07	-5.5425e-08	1.7334e-07	4.6786e-08	-3.2797e-08	1.399e-08	-5.042e-08	-8.5043e-08	-1.3546e-07	6.3563e-08	-6.3593e-08	-3.0549e-11	1.218e-07	-1.5104e-08	1.067e-07	6.8557e-08	-1.26e-07	-5.7448e-08	1.9866e-07	-7.4033e-08	1.2463e-07	-2.8533e-08	-4.5289e-08	-7.3822e-08	4.5662e-08	8.3323e-09	5.3995e-08	6.6523e-08	-4.2691e-08	2.3832e-08	1.892e-07	-2.3656e-08	1.6554e-07	3.5353e-08	-7.1769e-08	-3.6416e-08
-5.8372e-08	-2.9331e-08	-8.7703e-08	-1.0668e-07	-5.0099e-08	-1.5678e-07	3.5312e-08	-3.3424e-08	1.8878e-09	2.9348e-07	1.5389e-08	3.0887e-07	1.0133e-07	-1.5355e-08	8.5971e-08	-5.614e-08	3.8184e-08	-1.7957e-08	6.6622e-08	-5.1395e-08	1.5227e-08	1.86e-07	-2.2691e-08	1.6331e-07	2.2254e-07	-5.4093e-08	1.6845e-07	4.5092e-08	-3.1854e-08	1.3238e-08	-4.8755e-08	-8.3476e-08	-1.3223e-07	6.2155e-08	-6.247e-08	-3.1502e-10	1.1919e-07	-1.4602e-08	1.0459e-07	6.6737e-08	-1.2285e-07	-5.6113e-08	1.9338e-07	-7.2005e-08	1.2137e-07	-2.7579e-08	-4.4323e-08	-7.1902e-08	4.4475e-08	8.0616e-09	5.2537e-08	6.4787e-08	-4.1663e-08	2.3123e-08	1.8436e-07	-2.297e-08	1.6139e-07	3.4254e-08	-6.988e-08	-3.5626e-08
-5.6693e-08	-2.8642e-08	-8.5335e-08	-1.0356e-07	-4.8816e-08	-1.5238e-07	3.4628e-08	-3.252e-08	2.1081e-09	2.8647e-07	1.5202e-08	3.0168e-07	9.8535e-08	-1.4832e-08	8.3702e-08	-5.469e-08	3.7175e-08	-1.7515e-08	6.5005e-08	-5.009e-08	1.4914e-08	1.8098e-07	-2.2091e-08	1.5889e-07	2.1634e-07	-5.276e-08	1.6358e-07	4.3418e-08	-3.0916e-08	1.2502e-08	-4.7106e-08	-8.1892e-08	-1.29e-07	6.0741e-08	-6.1331e-08	-5.9029e-10	1.1656e-07	-1.4104e-08	1.0246e-07	6.4924e-08	-1.197e-07	-5.4773e-08	1.881e-07	-6.9984e-08	1.1812e-07	-2.6637e-08	-4.3351e-08	-6.9987e-08	4.3289e-08	7.7935e-09	5.1082e-08	6.3057e-08	-4.0634e-08	2.2423e-08	1.7953e-07	-2.2288e-08	1.5724e-07	3.3163e-08	-6.7994e-08	-3.4831e-08
-5.5022e-08	-2.7951e-08	-8.2973e-08	-1.0047e-07	-4.7534e-08	-1.48e-07	3.3937e-08	-3.1617e-08	2.3196e-09	2.7945e-07	1.5006e-08	2.9445e-07	9.5751e-08	-1.4313e-08	8.1438e-08	-5.3241e-08	3.6169e-08	-1.7072e-08	6.3385e-08	-4.8786e-08	1.4599e-08	1.7598e-07	-2.1491e-08	1.5449e-07	2.1016e-07	-5.1426e-08	1.5873e-07	4.1764e-08	-2.9982e-08	1.1782e-08	-4.5473e-08	-8.0293e-08	-1.2577e-07	5.9322e-08	-6.0179e-08	-8.5629e-10	1.1392e-07	-1.3611e-08	1.0031e-07	6.3118e-08	-1.1655e-07	-5.3427e-08	1.8285e-07	-6.797e-08	1.1488e-07	-2.5707e-08	-4.2373e-08	-6.808e-08	4.2103e-08	7.5279e-09	4.9631e-08	6.1333e-08	-3.9604e-08	2.1729e-08	1.747e-07	-2.1609e-08	1.5309e-07	3.2081e-08	-6.6113e-08	-3.4031e-08
-5.3359e-08	-2.7257e-08	-8.0616e-08	-9.7387e-08	-4.6253e-08	-1.4364e-07	3.3238e-08	-3.0716e-08	2.5223e-09	2.724e-07	1.4801e-08	2.872e-07	9.2976e-08	-1.3798e-08	7.9178e-08	-5.1794e-08	3.5167e-08	-1.6627e-08	6.1763e-08	-4.7482e-08	1.428e-08	1.7098e-07	-2.0892e-08	1.5009e-07	2.04e-07	-5.0091e-08	1.5391e-07	4.0131e-08	-2.9053e-08	1.1078e-08	-4.3856e-08	-7.8677e-08	-1.2253e-07	5.7899e-08	-5.9012e-08	-1.113e-09	1.1127e-07	-1.3123e-08	9.8142e-08	6.1318e-08	-1.1339e-07	-5.2077e-08	1.7761e-07	-6.5963e-08	1.1165e-07	-2.4788e-08	-4.139e-08	-6.6179e-08	4.0919e-08	7.2648e-09	4.8184e-08	5.9616e-08	-3.8572e-08	2.1044e-08	1.6988e-07	-2.0934e-08	1.4895e-07	3.1008e-08	-6.4234e-08	-3.3227e-08
-5.1703e-08	-2.6562e-08	-7.8265e-08	-9.4328e-08	-4.4973e-08	-1.393e-07	3.2533e-08	-2.9817e-08	2.716e-09	2.6534e-07	1.4588e-08	2.7993e-07	9.0209e-08	-1.3286e-08	7.6922e-08	-5.0348e-08	3.4167e-08	-1.6181e-08	6.0139e-08	-4.6179e-08	1.3959e-08	1.66e-07	-2.0293e-08	1.457e-07	1.9787e-07	-4.8755e-08	1.4911e-07	3.8517e-08	-2.8127e-08	1.039e-08	-4.2255e-08	-7.7045e-08	-1.193e-07	5.647e-08	-5.783e-08	-1.3603e-09	1.086e-07	-1.264e-08	9.5958e-08	5.9524e-08	-1.1025e-07	-5.0722e-08	1.7238e-07	-6.3963e-08	1.0842e-07	-2.3882e-08	-4.0402e-08	-6.4284e-08	3.9736e-08	7.0043e-09	4.674e-08	5.7905e-08	-3.7539e-08	2.0365e-08	1.6507e-07	-2.0262e-08	1.4481e-07	2.9942e-08	-6.236e-08	-3.2418e-08
-5.0055e-08	-2.5865e-08	-7.592e-08	-9.1287e-08	-4.3694e-08	-1.3498e-07	3.182e-08	-2.8919e-08	2.9009e-09	2.5827e-07	1.4367e-08	2.7263e-07	8.745e-08	-1.2779e-08	7.467e-08	-4.8904e-08	3.3171e-08	-1.5733e-08	5.8513e-08	-4.4877e-08	1.3636e-08	1.6103e-07	-1.9694e-08	1.4133e-07	1.9175e-07	-4.7418e-08	1.4433e-07	3.6924e-08	-2.7206e-08	9.718e-09	-4.0669e-08	-7.5397e-08	-1.1607e-07	5.5036e-08	-5.6634e-08	-1.5983e-09	1.0592e-07	-1.2162e-08	9.3757e-08	5.7736e-08	-1.071e-07	-4.9363e-08	1.6718e-07	-6.1969e-08	1.0521e-07	-2.2987e-08	-3.9409e-08	-6.2396e-08	3.8554e-08	6.7463e-09	4.53e-08	5.62e-08	-3.6505e-08	1.9695e-08	1.6027e-07	-1.9594e-08	1.4067e-07	2.8886e-08	-6.049e-08	-3.1604e-08
-4.8414e-08	-2.5167e-08	-7.3581e-08	-8.8264e-08	-4.2417e-08	-1.3068e-07	3.11e-08	-2.8024e-08	3.0768e-09	2.5118e-07	1.4138e-08	2.6532e-07	8.4699e-08	-1.2276e-08	7.2423e-08	-4.7461e-08	3.2178e-08	-1.5283e-08	5.6885e-08	-4.3576e-08	1.3309e-08	1.5607e-07	-1.9095e-08	1.3697e-07	1.8566e-07	-4.608e-08	1.3958e-07	3.5351e-08	-2.6289e-08	9.0616e-09	-3.91e-08	-7.3732e-08	-1.1283e-07	5.3597e-08	-5.5424e-08	-1.8268e-09	1.0323e-07	-1.1689e-08	9.1538e-08	5.5954e-08	-1.0395e-07	-4.7999e-08	1.6198e-07	-5.9984e-08	1.02e-07	-2.2104e-08	-3.8411e-08	-6.0515e-08	3.7374e-08	6.4907e-09	4.3865e-08	5.4501e-08	-3.547e-08	1.9031e-08	1.5547e-07	-1.893e-08	1.3654e-07	2.7837e-08	-5.8624e-08	-3.0786e-08
-4.6782e-08	-2.4466e-08	-7.1248e-08	-8.526e-08	-4.1141e-08	-1.264e-07	3.0374e-08	-2.713e-08	3.2438e-09	2.4407e-07	1.3901e-08	2.5797e-07	8.1958e-08	-1.1777e-08	7.018e-08	-4.6021e-08	3.1189e-08	-1.4832e-08	5.5256e-08	-4.2276e-08	1.298e-08	1.5112e-07	-1.8497e-08	1.3263e-07	1.7959e-07	-4.4741e-08	1.3485e-07	3.3798e-08	-2.5377e-08	8.4209e-09	-3.7547e-08	-7.2052e-08	-1.096e-07	5.2154e-08	-5.42e-08	-2.0459e-09	1.0052e-07	-1.1221e-08	8.9302e-08	5.4179e-08	-1.0081e-07	-4.6632e-08	1.5681e-07	-5.8005e-08	9.8804e-08	-2.1232e-08	-3.7408e-08	-5.864e-08	3.6195e-08	6.2376e-09	4.2433e-08	5.2808e-08	-3.4434e-08	1.8374e-08	1.5068e-07	-1.827e-08	1.3241e-07	2.6798e-08	-5.6762e-08	-2.9964e-08
-4.5157e-08	-2.3764e-08	-6.8922e-08	-8.2275e-08	-3.9866e-08	-1.2214e-07	2.964e-08	-2.6238e-08	3.4018e-09	2.3696e-07	1.3657e-08	2.5061e-07	7.9225e-08	-1.1283e-08	6.7942e-08	-4.4582e-08	3.0202e-08	-1.4379e-08	5.3625e-08	-4.0977e-08	1.2649e-08	1.4619e-07	-1.79e-08	1.2829e-07	1.7355e-07	-4.3402e-08	1.3014e-07	3.2265e-08	-2.4469e-08	7.7957e-09	-3.6009e-08	-7.0357e-08	-1.0637e-07	5.0706e-08	-5.2961e-08	-2.2555e-09	9.7807e-08	-1.0758e-08	8.7048e-08	5.241e-08	-9.7671e-08	-4.5261e-08	1.5165e-07	-5.6034e-08	9.5616e-08	-2.0372e-08	-3.64e-08	-5.6772e-08	3.5019e-08	5.987e-09	4.1006e-08	5.1121e-08	-3.3397e-08	1.7725e-08	1.459e-07	-1.7613e-08	1.2828e-07	2.5766e-08	-5.4905e-08	-2.9138e-08
-4.3541e-08	-2.3061e-08	-6.6601e-08	-7.9309e-08	-3.8592e-08	-1.179e-07	2.8899e-08	-2.5348e-08	3.5508e-09	2.2983e-07	1.3405e-08	2.4323e-07	7.6501e-08	-1.0792e-08	6.5709e-08	-4.3144e-08	2.9219e-08	-1.3925e-08	5.1993e-08	-3.9679e-08	1.2314e-08	1.4127e-07	-1.7303e-08	1.2397e-07	1.6752e-07	-4.2062e-08	1.2546e-07	3.0752e-08	-2.3566e-08	7.1861e-09	-3.4488e-08	-6.8645e-08	-1.0313e-07	4.9253e-08	-5.1708e-08	-2.4555e-09	9.5079e-08	-1.0301e-08	8.4778e-08	5.0647e-08	-9.4534e-08	-4.3888e-08	1.4651e-07	-5.4071e-08	9.2437e-08	-1.9524e-08	-3.5387e-08	-5.4911e-08	3.3844e-08	5.7388e-09	3.9582e-08	4.9441e-08	-3.2359e-08	1.7082e-08	1.4113e-07	-1.696e-08	1.2417e-07	2.4744e-08	-5.3052e-08	-2.8308e-08
-4.1932e-08	-2.2355e-08	-6.4288e-08	-7.6361e-08	-3.732e-08	-1.1368e-07	2.8152e-08	-2.4461e-08	3.6909e-09	2.2269e-07	1.3145e-08	2.3583e-07	7.3787e-08	-1.0306e-08	6.348e-08	-4.1709e-08	2.8239e-08	-1.347e-08	5.036e-08	-3.8382e-08	1.1978e-08	1.3637e-07	-1.6707e-08	1.1966e-07	1.6152e-07	-4.0722e-08	1.208e-07	2.926e-08	-2.2668e-08	6.5919e-09	-3.2983e-08	-6.6918e-08	-9.9901e-08	4.7796e-08	-5.0442e-08	-2.646e-09	9.2339e-08	-9.848e-09	8.2491e-08	4.889e-08	-9.1401e-08	-4.2511e-08	1.4138e-07	-5.2116e-08	8.9268e-08	-1.8686e-08	-3.437e-08	-5.3057e-08	3.2671e-08	5.4931e-09	3.8164e-08	4.7766e-08	-3.1321e-08	1.6445e-08	1.3636e-07	-1.6312e-08	1.2005e-07	2.373e-08	-5.1204e-08	-2.7474e-08
-4.0332e-08	-2.1649e-08	-6.198e-08	-7.3431e-08	-3.605e-08	-1.0948e-07	2.7398e-08	-2.3576e-08	3.8219e-09	2.1553e-07	1.2878e-08	2.2841e-07	7.1081e-08	-9.8246e-09	6.1257e-08	-4.0276e-08	2.7263e-08	-1.3013e-08	4.8725e-08	-3.7087e-08	1.1638e-08	1.3148e-07	-1.6111e-08	1.1537e-07	1.5555e-07	-3.9381e-08	1.1617e-07	2.7787e-08	-2.1774e-08	6.013e-09	-3.1493e-08	-6.5175e-08	-9.6669e-08	4.6334e-08	-4.9161e-08	-2.8269e-09	8.9587e-08	-9.4005e-09	8.0187e-08	4.7139e-08	-8.8271e-08	-4.1132e-08	1.3628e-07	-5.0169e-08	8.6107e-08	-1.786e-08	-3.3349e-08	-5.1209e-08	3.15e-08	5.2498e-09	3.6749e-08	4.6097e-08	-3.0281e-08	1.5816e-08	1.3161e-07	-1.5667e-08	1.1594e-07	2.2724e-08	-4.9361e-08	-2.6637e-08
-3.8739e-08	-2.094e-08	-5.9679e-08	-7.052e-08	-3.4781e-08	-1.053e-07	2.6637e-08	-2.2693e-08	3.944e-09	2.0837e-07	1.2604e-08	2.2098e-07	6.8386e-08	-9.3476e-09	5.9038e-08	-3.8845e-08	2.6289e-08	-1.2556e-08	4.709e-08	-3.5793e-08	1.1297e-08	1.2661e-07	-1.5516e-08	1.1109e-07	1.496e-07	-3.804e-08	1.1156e-07	2.6335e-08	-2.0885e-08	5.4494e-09	-3.002e-08	-6.3417e-08	-9.3437e-08	4.4868e-08	-4.7867e-08	-2.9982e-09	8.6825e-08	-8.9581e-09	7.7867e-08	4.5394e-08	-8.5144e-08	-3.975e-08	1.3119e-07	-4.823e-08	8.2956e-08	-1.7045e-08	-3.2323e-08	-4.9368e-08	3.0331e-08	5.0089e-09	3.534e-08	4.4434e-08	-2.9242e-08	1.5193e-08	1.2686e-07	-1.5026e-08	1.1184e-07	2.1728e-08	-4.7523e-08	-2.5796e-08
-3.7155e-08	-2.023e-08	-5.7385e-08	-6.7628e-08	-3.3513e-08	-1.0114e-07	2.587e-08	-2.1813e-08	4.057e-09	2.012e-07	1.2322e-08	2.1352e-07	6.57e-08	-8.8751e-09	5.6825e-08	-3.7416e-08	2.5319e-08	-1.2097e-08	4.5453e-08	-3.4501e-08	1.0953e-08	1.2175e-07	-1.4922e-08	1.0683e-07	1.4367e-07	-3.6699e-08	1.0697e-07	2.4902e-08	-2.0001e-08	4.901e-09	-2.8563e-08	-6.1644e-08	-9.0207e-08	4.3398e-08	-4.6558e-08	-3.1599e-09	8.4051e-08	-8.5209e-09	7.553e-08	4.3656e-08	-8.2022e-08	-3.8366e-08	1.2611e-07	-4.63e-08	7.9814e-08	-1.6241e-08	-3.1293e-08	-4.7534e-08	2.9165e-08	4.7704e-09	3.3935e-08	4.2777e-08	-2.8202e-08	1.4576e-08	1.2213e-07	-1.4389e-08	1.0774e-07	2.0739e-08	-4.569e-08	-2.4951e-08
-3.5579e-08	-1.9519e-08	-5.5098e-08	-6.4754e-08	-3.2247e-08	-9.7001e-08	2.5096e-08	-2.0935e-08	4.161e-09	1.9402e-07	1.2034e-08	2.0605e-07	6.3025e-08	-8.4072e-09	5.4617e-08	-3.5989e-08	2.4353e-08	-1.1637e-08	4.3816e-08	-3.321e-08	1.0606e-08	1.169e-07	-1.4329e-08	1.0257e-07	1.3777e-07	-3.5358e-08	1.0242e-07	2.349e-08	-1.9122e-08	4.3676e-09	-2.7122e-08	-5.9855e-08	-8.6977e-08	4.1924e-08	-4.5236e-08	-3.3119e-09	8.1266e-08	-8.0889e-09	7.3177e-08	4.1924e-08	-7.8904e-08	-3.698e-08	1.2106e-07	-4.4378e-08	7.6681e-08	-1.5448e-08	-3.0259e-08	-4.5707e-08	2.8001e-08	4.5343e-09	3.2535e-08	4.1126e-08	-2.7161e-08	1.3965e-08	1.174e-07	-1.3756e-08	1.0365e-07	1.976e-08	-4.3863e-08	-2.4103e-08
-3.4011e-08	-1.8806e-08	-5.2818e-08	-6.1898e-08	-3.0983e-08	-9.2881e-08	2.4316e-08	-2.006e-08	4.256e-09	1.8683e-07	1.1739e-08	1.9857e-07	6.0359e-08	-7.9441e-09	5.2415e-08	-3.4565e-08	2.3389e-08	-1.1176e-08	4.2178e-08	-3.1921e-08	1.0257e-08	1.1208e-07	-1.3738e-08	9.8338e-08	1.319e-07	-3.4017e-08	9.7881e-08	2.2097e-08	-1.8248e-08	3.8492e-09	-2.5697e-08	-5.8051e-08	-8.3748e-08	4.0446e-08	-4.39e-08	-3.4543e-09	7.847e-08	-7.6621e-09	7.0808e-08	4.0197e-08	-7.579e-08	-3.5592e-08	1.1602e-07	-4.2464e-08	7.3558e-08	-1.4666e-08	-2.922e-08	-4.3886e-08	2.684e-08	4.3006e-09	3.1141e-08	3.9481e-08	-2.6121e-08	1.336e-08	1.1269e-07	-1.3127e-08	9.956e-08	1.8789e-08	-4.2041e-08	-2.3252e-08
-3.2452e-08	-1.8092e-08	-5.0544e-08	-5.9061e-08	-2.972e-08	-8.8782e-08	2.353e-08	-1.9188e-08	4.3419e-09	1.7963e-07	1.1437e-08	1.9107e-07	5.7704e-08	-7.4856e-09	5.0218e-08	-3.3143e-08	2.2429e-08	-1.0714e-08	4.054e-08	-3.0634e-08	9.9059e-09	1.0726e-07	-1.3147e-08	9.4116e-08	1.2605e-07	-3.2676e-08	9.3372e-08	2.0725e-08	-1.7379e-08	3.3457e-09	-2.4288e-08	-5.6232e-08	-8.052e-08	3.8964e-08	-4.2551e-08	-3.587e-09	7.5664e-08	-7.2405e-09	6.8424e-08	3.8477e-08	-7.2681e-08	-3.4204e-08	1.11e-07	-4.056e-08	7.0444e-08	-1.3894e-08	-2.8178e-08	-4.2073e-08	2.5682e-08	4.0693e-09	2.9751e-08	3.7841e-08	-2.508e-08	1.2762e-08	1.0798e-07	-1.2502e-08	9.5481e-08	1.7827e-08	-4.0225e-08	-2.2398e-08
-3.0901e-08	-1.7377e-08	-4.8278e-08	-5.6242e-08	-2.846e-08	-8.4702e-08	2.2737e-08	-1.8318e-08	4.4188e-09	1.7243e-07	1.1128e-08	1.8356e-07	5.5059e-08	-7.032e-09	4.8027e-08	-3.1724e-08	2.1473e-08	-1.0251e-08	3.8901e-08	-2.9349e-08	9.5525e-09	1.0247e-07	-1.2557e-08	8.991e-08	1.2022e-07	-3.1335e-08	8.8889e-08	1.9372e-08	-1.6515e-08	2.857e-09	-2.2896e-08	-5.4398e-08	-7.7294e-08	3.7479e-08	-4.1189e-08	-3.71e-09	7.2848e-08	-6.8242e-09	6.6024e-08	3.6763e-08	-6.9577e-08	-3.2813e-08	1.06e-07	-3.8664e-08	6.7339e-08	-1.3133e-08	-2.7132e-08	-4.0266e-08	2.4526e-08	3.8403e-09	2.8366e-08	3.6207e-08	-2.4039e-08	1.2169e-08	1.0329e-07	-1.1881e-08	9.1408e-08	1.6873e-08	-3.8414e-08	-2.1541e-08
-2.9358e-08	-1.6661e-08	-4.6019e-08	-5.3442e-08	-2.7201e-08	-8.0643e-08	2.1938e-08	-1.7451e-08	4.4866e-09	1.6522e-07	1.0813e-08	1.7603e-07	5.2424e-08	-6.5833e-09	4.5841e-08	-3.0307e-08	2.052e-08	-9.7875e-09	3.7263e-08	-2.8066e-08	9.1968e-09	9.7687e-08	-1.1969e-08	8.5718e-08	1.1443e-07	-2.9995e-08	8.4432e-08	1.804e-08	-1.5657e-08	2.3829e-09	-2.1519e-08	-5.2549e-08	-7.4068e-08	3.5989e-08	-3.9812e-08	-3.8233e-09	7.0022e-08	-6.4131e-09	6.3609e-08	3.5056e-08	-6.6478e-08	-3.1422e-08	1.0102e-07	-3.6777e-08	6.4245e-08	-1.2383e-08	-2.6083e-08	-3.8466e-08	2.3374e-08	3.6137e-09	2.6987e-08	3.4579e-08	-2.2998e-08	1.1581e-08	9.8606e-08	-1.1264e-08	8.7342e-08	1.5928e-08	-3.661e-08	-2.0682e-08
-2.7825e-08	-1.5943e-08	-4.3768e-08	-5.066e-08	-2.5944e-08	-7.6604e-08	2.1133e-08	-1.6588e-08	4.5454e-09	1.5801e-07	1.0492e-08	1.685e-07	4.9801e-08	-6.1395e-09	4.3662e-08	-2.8893e-08	1.957e-08	-9.3234e-09	3.5624e-08	-2.6785e-08	8.8389e-09	9.2924e-08	-1.1382e-08	8.1542e-08	1.0866e-07	-2.8655e-08	8.0001e-08	1.6727e-08	-1.4804e-08	1.9235e-09	-2.0158e-08	-5.0686e-08	-7.0844e-08	3.4496e-08	-3.8423e-08	-3.9269e-09	6.7185e-08	-6.0073e-09	6.1178e-08	3.3354e-08	-6.3384e-08	-3.0031e-08	9.6059e-08	-3.49e-08	6.1159e-08	-1.1643e-08	-2.503e-08	-3.6672e-08	2.2224e-08	3.3895e-09	2.5614e-08	3.2957e-08	-2.1957e-08	1.0999e-08	9.3935e-08	-1.0652e-08	8.3284e-08	1.4992e-08	-3.4812e-08	-1.9819e-08
-2.6299e-08	-1.5225e-08	-4.1524e-08	-4.7896e-08	-2.4689e-08	-7.2584e-08	2.0322e-08	-1.5727e-08	4.5952e-09	1.5079e-07	1.0165e-08	1.6095e-07	4.7189e-08	-5.7007e-09	4.1488e-08	-2.7482e-08	1.8623e-08	-8.8587e-09	3.3985e-08	-2.5506e-08	8.4788e-09	8.8178e-08	-1.0796e-08	7.7382e-08	1.0291e-07	-2.7316e-08	7.5596e-08	1.5434e-08	-1.3956e-08	1.4785e-09	-1.8814e-08	-4.8807e-08	-6.7621e-08	3.3e-08	-3.7021e-08	-4.0208e-09	6.434e-08	-5.6066e-09	5.8733e-08	3.1659e-08	-6.0297e-08	-2.8638e-08	9.1115e-08	-3.3031e-08	5.8084e-08	-1.0912e-08	-2.3973e-08	-3.4885e-08	2.1078e-08	3.1677e-09	2.4246e-08	3.134e-08	-2.0917e-08	1.0423e-08	8.9276e-08	-1.0043e-08	7.9233e-08	1.4065e-08	-3.3019e-08	-1.8955e-08
-2.4783e-08	-1.4505e-08	-3.9288e-08	-4.515e-08	-2.3436e-08	-6.8586e-08	1.9505e-08	-1.4869e-08	4.6359e-09	1.4356e-07	9.8309e-09	1.5339e-07	4.4587e-08	-5.2669e-09	3.9321e-08	-2.6073e-08	1.7679e-08	-8.3935e-09	3.2346e-08	-2.4229e-08	8.1167e-09	8.345e-08	-1.0212e-08	7.3238e-08	9.7195e-08	-2.5977e-08	7.1217e-08	1.4161e-08	-1.3113e-08	1.0479e-09	-1.7485e-08	-4.6914e-08	-6.4399e-08	3.15e-08	-3.5605e-08	-4.1051e-09	6.1485e-08	-5.2112e-09	5.6273e-08	2.9969e-08	-5.7215e-08	-2.7246e-08	8.6191e-08	-3.1172e-08	5.5019e-08	-1.0192e-08	-2.2913e-08	-3.3105e-08	1.9936e-08	2.9482e-09	2.2884e-08	2.9728e-08	-1.9877e-08	9.8515e-09	8.4628e-08	-9.4391e-09	7.5189e-08	1.3146e-08	-3.1233e-08	-1.8088e-08
-2.3275e-08	-1.3784e-08	-3.7059e-08	-4.2422e-08	-2.2185e-08	-6.4607e-08	1.8682e-08	-1.4015e-08	4.6675e-09	1.3634e-07	9.4912e-09	1.4583e-07	4.1997e-08	-4.8382e-09	3.7159e-08	-2.4667e-08	1.6739e-08	-7.928e-09	3.0707e-08	-2.2955e-08	7.7525e-09	7.8739e-08	-9.6289e-09	6.911e-08	9.1505e-08	-2.4639e-08	6.6866e-08	1.2908e-08	-1.2276e-08	6.316e-10	-1.6172e-08	-4.5007e-08	-6.1179e-08	2.9997e-08	-3.4177e-08	-4.1796e-09	5.862e-08	-4.8211e-09	5.3799e-08	2.8286e-08	-5.4139e-08	-2.5853e-08	8.1286e-08	-2.9323e-08	5.1963e-08	-9.4823e-09	-2.185e-08	-3.1332e-08	1.8797e-08	2.731e-09	2.1528e-08	2.8123e-08	-1.8837e-08	9.2854e-09	7.9993e-08	-8.8392e-09	7.1154e-08	1.2236e-08	-2.9454e-08	-1.7218e-08
-2.1776e-08	-1.3063e-08	-3.4839e-08	-3.9712e-08	-2.0936e-08	-6.0649e-08	1.7854e-08	-1.3164e-08	4.6902e-09	1.2911e-07	9.1457e-09	1.3825e-07	3.9419e-08	-4.4146e-09	3.5004e-08	-2.3265e-08	1.5803e-08	-7.4621e-09	2.9069e-08	-2.1683e-08	7.3863e-09	7.4045e-08	-9.0478e-09	6.4998e-08	8.5843e-08	-2.3302e-08	6.2541e-08	1.1674e-08	-1.1445e-08	2.2944e-10	-1.4876e-08	-4.3085e-08	-5.7961e-08	2.8491e-08	-3.2735e-08	-4.2444e-09	5.5747e-08	-4.4361e-09	5.1311e-08	2.6609e-08	-5.107e-08	-2.446e-08	7.64e-08	-2.7483e-08	4.8917e-08	-8.7819e-09	-2.0783e-08	-2.9565e-08	1.7661e-08	2.5162e-09	2.0177e-08	2.6522e-08	-1.7798e-08	8.7241e-09	7.5371e-08	-8.2436e-09	6.7127e-08	1.1335e-08	-2.7681e-08	-1.6347e-08
-2.0286e-08	-1.234e-08	-3.2627e-08	-3.7021e-08	-1.969e-08	-5.6711e-08	1.702e-08	-1.2316e-08	4.7038e-09	1.2187e-07	8.7943e-09	1.3067e-07	3.6852e-08	-3.9962e-09	3.2856e-08	-2.1865e-08	1.4869e-08	-6.9962e-09	2.7431e-08	-2.0413e-08	7.0181e-09	6.9371e-08	-8.4684e-09	6.0902e-08	8.0209e-08	-2.1966e-08	5.8244e-08	1.0461e-08	-1.0619e-08	-1.5867e-10	-1.3595e-08	-4.1149e-08	-5.4744e-08	2.6982e-08	-3.1282e-08	-4.2995e-09	5.2865e-08	-4.0564e-09	4.8809e-08	2.4939e-08	-4.8007e-08	-2.3068e-08	7.1535e-08	-2.5653e-08	4.5882e-08	-8.0912e-09	-1.9714e-08	-2.7805e-08	1.6529e-08	2.3038e-09	1.8833e-08	2.4928e-08	-1.676e-08	8.1677e-09	7.0761e-08	-7.6524e-09	6.3109e-08	1.0442e-08	-2.5915e-08	-1.5473e-08
-1.8805e-08	-1.1617e-08	-3.0422e-08	-3.4347e-08	-1.8446e-08	-5.2793e-08	1.618e-08	-1.1472e-08	4.7084e-09	1.1464e-07	8.4372e-09	1.2308e-07	3.4297e-08	-3.5831e-09	3.0714e-08	-2.0469e-08	1.3939e-08	-6.5301e-09	2.5794e-08	-1.9146e-08	6.6481e-09	6.4714e-08	-7.8907e-09	5.6823e-08	7.4604e-08	-2.0631e-08	5.3973e-08	9.2663e-09	-9.7992e-09	-5.3285e-10	-1.233e-08	-3.9199e-08	-5.153e-08	2.547e-08	-2.9815e-08	-4.3449e-09	4.9975e-08	-3.6818e-09	4.6293e-08	2.3275e-08	-4.4951e-08	-2.1677e-08	6.6689e-08	-2.3832e-08	4.2857e-08	-7.41e-09	-1.8642e-08	-2.6052e-08	1.5401e-08	2.0937e-09	1.7495e-08	2.3338e-08	-1.5722e-08	7.6159e-09	6.6165e-08	-7.0654e-09	5.91e-08	9.5589e-09	-2.4156e-08	-1.4598e-08
-1.7333e-08	-1.0893e-08	-2.8227e-08	-3.1692e-08	-1.7204e-08	-4.8896e-08	1.5335e-08	-1.0631e-08	4.7041e-09	1.0741e-07	8.0746e-09	1.1548e-07	3.1755e-08	-3.1753e-09	2.8579e-08	-1.9076e-08	1.3011e-08	-6.0641e-09	2.4158e-08	-1.7881e-08	6.2761e-09	6.0076e-08	-7.3149e-09	5.2761e-08	6.9027e-08	-1.9297e-08	4.973e-08	8.0917e-09	-8.9849e-09	-8.932e-10	-1.1082e-08	-3.7235e-08	-4.8316e-08	2.3955e-08	-2.8336e-08	-4.3807e-09	4.7077e-08	-3.3124e-09	4.3764e-08	2.1617e-08	-4.1903e-08	-2.0286e-08	6.1864e-08	-2.2022e-08	3.9842e-08	-6.7382e-09	-1.7566e-08	-2.4304e-08	1.4278e-08	1.8859e-09	1.6164e-08	2.1754e-08	-1.4686e-08	7.0687e-09	6.1582e-08	-6.4828e-09	5.5099e-08	8.6841e-09	-2.2404e-08	-1.372e-08
-1.587e-08	-1.0169e-08	-2.6039e-08	-2.9054e-08	-1.5965e-08	-4.5019e-08	1.4484e-08	-9.7936e-09	4.6907e-09	1.0017e-07	7.7065e-09	1.0788e-07	2.9224e-08	-2.7728e-09	2.6451e-08	-1.7686e-08	1.2088e-08	-5.5983e-09	2.2522e-08	-1.662e-08	5.9024e-09	5.5457e-08	-6.741e-09	4.8716e-08	6.3479e-08	-1.7964e-08	4.5515e-08	6.9366e-09	-8.1764e-09	-1.2398e-09	-9.8489e-09	-3.5256e-08	-4.5105e-08	2.2438e-08	-2.6845e-08	-4.4068e-09	4.417e-08	-2.9482e-09	4.1222e-08	1.9965e-08	-3.8861e-08	-1.8896e-08	5.7059e-08	-2.0222e-08	3.6837e-08	-6.0755e-09	-1.6488e-08	-2.2564e-08	1.3158e-08	1.6805e-09	1.4838e-08	2.0176e-08	-1.365e-08	6.5259e-09	5.7013e-08	-5.9046e-09	5.1108e-08	7.8181e-09	-2.066e-08	-1.2842e-08
-1.4416e-08	-9.4441e-09	-2.386e-08	-2.6435e-08	-1.4728e-08	-4.1163e-08	1.3628e-08	-8.96e-09	4.6684e-09	9.2941e-08	7.3331e-09	1.0027e-07	2.6705e-08	-2.3757e-09	2.433e-08	-1.6299e-08	1.1167e-08	-5.1328e-09	2.0887e-08	-1.536e-08	5.5269e-09	5.0858e-08	-6.1691e-09	4.4688e-08	5.7961e-08	-1.6633e-08	4.1328e-08	5.801e-09	-7.3739e-09	-1.5729e-09	-8.632e-09	-3.3264e-08	-4.1896e-08	2.0918e-08	-2.5342e-08	-4.4233e-09	4.1256e-08	-2.5891e-09	3.8667e-08	1.832e-08	-3.5827e-08	-1.7507e-08	5.2275e-08	-1.8432e-08	3.3844e-08	-5.4219e-09	-1.5408e-08	-2.083e-08	1.2043e-08	1.4774e-09	1.352e-08	1.8603e-08	-1.2615e-08	5.9873e-09	5.2457e-08	-5.3308e-09	4.7127e-08	6.961e-09	-1.8922e-08	-1.1961e-08
-1.2972e-08	-8.7186e-09	-2.1691e-08	-2.3833e-08	-1.3494e-08	-3.7327e-08	1.2767e-08	-8.1302e-09	4.6371e-09	8.5711e-08	6.9544e-09	9.2665e-08	2.4199e-08	-1.9841e-09	2.2215e-08	-1.4917e-08	1.0249e-08	-4.6676e-09	1.9254e-08	-1.4104e-08	5.1498e-09	4.6277e-08	-5.5993e-09	4.0678e-08	5.2471e-08	-1.5303e-08	3.7169e-08	4.6848e-09	-6.5773e-09	-1.8925e-09	-7.4309e-09	-3.1258e-08	-3.8689e-08	1.9396e-08	-2.3826e-08	-4.4301e-09	3.8335e-08	-2.2351e-09	3.61e-08	1.6682e-08	-3.2801e-08	-1.6119e-08	4.7512e-08	-1.6652e-08	3.086e-08	-4.7772e-09	-1.4325e-08	-1.9102e-08	1.0932e-08	1.2767e-09	1.2208e-08	1.7035e-08	-1.1582e-08	5.4529e-09	4.7916e-08	-4.7615e-09	4.3155e-08	6.1127e-09	-1.7192e-08	-1.108e-08
-1.1537e-08	-7.9928e-09	-1.9529e-08	-2.1249e-08	-1.2263e-08	-3.3512e-08	1.1901e-08	-7.3041e-09	4.5968e-09	7.8482e-08	6.5705e-09	8.5052e-08	2.1706e-08	-1.598e-09	2.0108e-08	-1.3537e-08	9.3344e-09	-4.203e-09	1.7621e-08	-1.285e-08	4.771e-09	4.1717e-08	-5.0316e-09	3.6685e-08	4.7012e-08	-1.3974e-08	3.3037e-08	3.5881e-09	-5.7868e-09	-2.1987e-09	-6.2456e-09	-2.9239e-08	-3.5485e-08	1.7872e-08	-2.2299e-08	-4.4273e-09	3.5407e-08	-1.8862e-09	3.352e-08	1.505e-08	-2.9783e-08	-1.4733e-08	4.2771e-08	-1.4883e-08	2.7888e-08	-4.1413e-09	-1.3239e-08	-1.738e-08	9.8251e-09	1.0783e-09	1.0903e-08	1.5472e-08	-1.055e-08	4.9224e-09	4.339e-08	-4.1966e-09	3.9193e-08	5.2732e-09	-1.547e-08	-1.0197e-08
-1.0111e-08	-7.2666e-09	-1.7377e-08	-1.8683e-08	-1.1034e-08	-2.9717e-08	1.103e-08	-6.482e-09	4.5477e-09	7.1256e-08	6.1816e-09	7.7438e-08	1.9226e-08	-1.2173e-09	1.8009e-08	-1.2162e-08	8.4229e-09	-3.7389e-09	1.599e-08	-1.16e-08	4.3906e-09	3.7176e-08	-4.4661e-09	3.271e-08	4.1582e-08	-1.2648e-08	2.8934e-08	2.5106e-09	-5.0024e-09	-2.4917e-09	-5.0761e-09	-2.7206e-08	-3.2282e-08	1.6345e-08	-2.076e-08	-4.415e-09	3.2471e-08	-1.5424e-09	3.0929e-08	1.3424e-08	-2.6773e-08	-1.3349e-08	3.805e-08	-1.3124e-08	2.4926e-08	-3.5139e-09	-1.2151e-08	-1.5665e-08	8.7232e-09	8.8221e-10	9.6054e-09	1.3915e-08	-9.5194e-09	4.3957e-09	3.8879e-08	-3.6363e-09	3.5242e-08	4.4426e-09	-1.3755e-08	-9.3126e-09
-8.6945e-09	-6.5402e-09	-1.5235e-08	-1.6134e-08	-9.8085e-09	-2.5943e-08	1.0153e-08	-5.6638e-09	4.4896e-09	6.4034e-08	5.7877e-09	6.9822e-08	1.6758e-08	-8.4228e-10	1.5916e-08	-1.079e-08	7.5144e-09	-3.2757e-09	1.4361e-08	-1.0352e-08	4.0086e-09	3.2656e-08	-3.903e-09	2.8753e-08	3.6183e-08	-1.1323e-08	2.486e-08	1.4524e-09	-4.2241e-09	-2.7717e-09	-3.9224e-09	-2.5159e-08	-2.9082e-08	1.4816e-08	-1.9209e-08	-4.3931e-09	2.953e-08	-1.2035e-09	2.8326e-08	1.1805e-08	-2.3771e-08	-1.1966e-08	3.3352e-08	-1.1376e-08	2.1976e-08	-2.895e-09	-1.1061e-08	-1.3956e-08	7.6262e-09	6.885e-10	8.3147e-09	1.2363e-08	-8.4904e-09	3.8727e-09	3.4382e-08	-3.0804e-09	3.1302e-08	3.621e-09	-1.2048e-08	-8.4275e-09
-7.2877e-09	-5.8137e-09	-1.3101e-08	-1.3603e-08	-8.5857e-09	-2.2189e-08	9.2723e-09	-4.8496e-09	4.4227e-09	5.6816e-08	5.3889e-09	6.2205e-08	1.4304e-08	-4.7284e-10	1.3831e-08	-9.4223e-09	6.6089e-09	-2.8133e-09	1.2733e-08	-9.1074e-09	3.6252e-09	2.8156e-08	-3.3422e-09	2.4814e-08	3.0814e-08	-9.9997e-09	2.0814e-08	4.1345e-10	-3.4521e-09	-3.0386e-09	-2.7843e-09	-2.3099e-08	-2.5884e-08	1.3286e-08	-1.7647e-08	-4.3616e-09	2.6582e-08	-8.6971e-10	2.5712e-08	1.0193e-08	-2.0778e-08	-1.0585e-08	2.8675e-08	-9.6381e-09	1.9037e-08	-2.2842e-09	-9.9682e-09	-1.2252e-08	6.534e-09	4.9714e-10	7.0312e-09	1.0816e-08	-7.463e-09	3.3533e-09	2.9901e-08	-2.5291e-09	2.7372e-08	2.8082e-09	-1.035e-08	-7.5414e-09
-5.8905e-09	-5.0871e-09	-1.0978e-08	-1.109e-08	-7.3659e-09	-1.8456e-08	8.3864e-09	-4.0395e-09	4.3469e-09	4.9603e-08	4.9854e-09	5.4589e-08	1.1863e-08	-1.0907e-10	1.1754e-08	-8.0584e-09	5.7064e-09	-2.352e-09	1.1106e-08	-7.8658e-09	3.2404e-09	2.3676e-08	-2.7839e-09	2.0893e-08	2.5476e-08	-8.6785e-09	1.6798e-08	-6.0637e-10	-2.6863e-09	-3.2927e-09	-1.6619e-09	-2.1026e-08	-2.2688e-08	1.1754e-08	-1.6074e-08	-4.3207e-09	2.3628e-08	-5.4082e-10	2.3087e-08	8.5874e-09	-1.7794e-08	-9.2066e-09	2.402e-08	-7.9114e-09	1.6109e-08	-1.6816e-09	-8.8737e-09	-1.0555e-08	5.4469e-09	3.0814e-10	5.7551e-09	9.2748e-09	-6.4374e-09	2.8373e-09	2.5436e-08	-1.9824e-09	2.3454e-08	2.0043e-09	-8.6589e-09	-6.6546e-09
-4.5029e-09	-4.3605e-09	-8.8634e-09	-8.5947e-09	-6.1493e-09	-1.4744e-08	7.4959e-09	-3.2336e-09	4.2623e-09	4.2396e-08	4.5771e-09	4.6973e-08	9.4356e-09	2.49e-10	9.6846e-09	-6.6986e-09	4.8067e-09	-1.8918e-09	9.4815e-09	-6.6272e-09	2.8543e-09	1.9218e-08	-2.2281e-09	1.699e-08	2.0169e-08	-7.3595e-09	1.281e-08	-1.6071e-09	-1.927e-09	-3.5341e-09	-5.5509e-10	-1.894e-08	-1.9495e-08	1.022e-08	-1.449e-08	-4.2703e-09	2.0668e-08	-2.1685e-10	2.0451e-08	6.9887e-09	-1.4819e-08	-7.8301e-09	1.9388e-08	-6.1956e-09	1.3192e-08	-1.0869e-09	-7.7773e-09	-8.8642e-09	4.3649e-09	1.215e-10	4.4864e-09	7.7383e-09	-5.4138e-09	2.3246e-09	2.0987e-08	-1.4403e-09	1.9547e-08	1.2093e-09	-6.9764e-09	-5.7672e-09
-3.1251e-09	-3.634e-09	-6.7591e-09	-6.1167e-09	-4.9358e-09	-1.1053e-08	6.6008e-09	-2.4319e-09	4.1688e-09	3.5195e-08	4.1642e-09	3.9359e-08	7.0217e-09	6.0134e-10	7.623e-09	-5.3429e-09	3.91e-09	-1.4329e-09	7.8587e-09	-5.3918e-09	2.4668e-09	1.4781e-08	-1.675e-09	1.3106e-08	1.4894e-08	-6.0426e-09	8.851e-09	-2.5888e-09	-1.1741e-09	-3.7629e-09	5.3612e-10	-1.6841e-08	-1.6305e-08	8.6841e-09	-1.2895e-08	-4.2105e-09	1.7703e-08	1.0226e-10	1.7805e-08	5.3968e-09	-1.1853e-08	-6.4561e-09	1.4778e-08	-4.4907e-09	1.0287e-08	-4.999e-10	-6.6789e-09	-7.1788e-09	3.2883e-09	-6.2782e-11	3.2255e-09	6.207e-09	-4.3921e-09	1.8149e-09	1.6554e-08	-9.0281e-10	1.5651e-08	4.2321e-10	-5.3023e-09	-4.8791e-09
-1.7571e-09	-2.9077e-09	-4.6648e-09	-3.6562e-09	-3.7257e-09	-7.3819e-09	5.7012e-09	-1.6346e-09	4.0666e-09	2.8001e-08	3.7469e-09	3.1748e-08	4.6215e-09	9.4789e-10	5.5694e-09	-3.9915e-09	3.016e-09	-9.7549e-10	6.2378e-09	-4.1597e-09	2.0781e-09	1.0365e-08	-1.1245e-09	9.2403e-09	9.6495e-09	-4.7279e-09	4.9216e-09	-3.5516e-09	-4.277e-10	-3.9793e-09	1.6118e-09	-1.4729e-08	-1.3117e-08	7.1473e-09	-1.1288e-08	-4.1412e-09	1.4732e-08	4.1653e-10	1.5149e-08	3.8119e-09	-8.8965e-09	-5.0846e-09	1.0191e-08	-2.797e-09	7.3942e-09	7.9542e-11	-5.5787e-09	-5.4992e-09	2.217e-09	-2.4469e-10	1.9723e-09	4.6809e-09	-3.3726e-09	1.3083e-09	1.2138e-08	-3.6997e-10	1.1768e-08	-3.5392e-10	-3.6367e-09	-3.9907e-09
-3.99e-10	-2.1816e-09	-2.5807e-09	-1.2132e-09	-2.519e-09	-3.7322e-09	4.7972e-09	-8.4157e-10	3.9557e-09	2.0815e-08	3.325e-09	2.414e-08	2.2353e-09	1.2886e-09	3.5239e-09	-2.6445e-09	2.1248e-09	-5.1962e-10	4.619e-09	-2.9307e-09	1.6883e-09	5.9705e-09	-5.7686e-10	5.3937e-09	4.4373e-09	-3.4156e-09	1.0217e-09	-4.4954e-09	3.1214e-10	-4.1833e-09	2.672e-09	-1.2604e-08	-9.9322e-09	5.6092e-09	-9.6718e-09	-4.0626e-09	1.1757e-08	7.2604e-10	1.2483e-08	2.2339e-09	-5.9497e-09	-3.7157e-09	5.6274e-09	-1.1144e-09	4.513e-09	6.516e-10	-4.4768e-09	-3.8252e-09	1.1512e-09	-4.2423e-10	7.2699e-10	3.1598e-09	-2.3553e-09	8.0446e-10	7.7387e-09	1.5819e-10	7.8969e-09	-1.1221e-09	-1.9798e-09	-3.1018e-09
9.4913e-10	-1.456e-09	-5.0686e-10	1.2124e-09	-1.3157e-09	-1.0333e-10	3.889e-09	-5.2996e-11	3.836e-09	1.3637e-08	2.8989e-09	1.6536e-08	-1.3689e-10	1.6235e-09	1.4866e-09	-1.3019e-09	1.2364e-09	-6.5466e-11	3.0025e-09	-1.7051e-09	1.2974e-09	1.5981e-09	-3.2056e-11	1.566e-09	-7.4287e-10	-2.1058e-09	-2.8486e-09	-5.4205e-09	1.0453e-09	-4.3752e-09	3.7168e-09	-1.0467e-08	-6.75e-09	4.07e-09	-8.0447e-09	-3.9747e-09	8.7775e-09	1.0308e-09	9.8083e-09	6.6307e-10	-3.0127e-09	-2.3497e-09	1.0869e-09	5.5701e-10	1.6439e-09	1.2165e-09	-3.3733e-09	-2.1569e-09	9.1119e-11	-6.0138e-10	-5.1026e-10	1.6437e-09	-1.3404e-09	3.0335e-10	3.3564e-09	6.8167e-10	4.0381e-09	-1.8813e-09	-3.3152e-10	-2.2128e-09
2.2872e-09	-7.3078e-10	1.5564e-09	3.6206e-09	-1.1609e-10	3.5045e-09	2.9766e-09	7.3107e-10	3.7077e-09	6.4684e-09	2.4684e-09	8.9369e-09	-2.4948e-09	1.9525e-09	-5.4231e-10	3.6177e-11	3.5064e-10	3.8681e-10	1.3882e-09	-4.8284e-10	9.0538e-10	-2.7524e-09	5.098e-10	-2.2426e-09	-5.8907e-09	-7.985e-10	-6.6892e-09	-6.3268e-09	1.7718e-09	-4.555e-09	4.7463e-09	-8.3168e-09	-3.5706e-09	2.5298e-09	-6.4073e-09	-3.8775e-09	5.7935e-09	1.3309e-09	7.1244e-09	-9.0063e-10	-8.5855e-11	-9.8648e-10	-3.43e-09	2.2171e-09	-1.213e-09	1.7743e-09	-2.2683e-09	-4.9394e-10	-9.632e-10	-7.7614e-10	-1.7393e-09	1.3275e-10	-3.2796e-10	-1.9521e-10	-1.0084e-09	1.2004e-09	1.9206e-10	-2.6315e-09	1.3078e-09	-1.3237e-09
3.6152e-09	-6.1304e-12	3.609e-09	6.0115e-09	1.0799e-09	7.0914e-09	2.0601e-09	1.5106e-09	3.5707e-09	-6.9073e-10	2.0338e-09	1.343e-09	-4.8384e-09	2.2756e-09	-2.5628e-09	1.3696e-09	-5.325e-10	8.3707e-10	-2.2362e-10	7.3606e-10	5.1244e-10	-7.0805e-09	1.0486e-09	-6.0319e-09	-1.1006e-08	5.0611e-10	-1.05e-08	-7.2144e-09	2.4915e-09	-4.7229e-09	5.7604e-09	-6.1544e-09	-3.9405e-10	9.8882e-10	-4.7598e-09	-3.771e-09	2.8056e-09	1.6264e-09	4.432e-09	-2.4571e-09	2.8308e-09	3.7367e-10	-7.9231e-09	3.8657e-09	-4.0574e-09	2.3254e-09	-1.1618e-09	1.1636e-09	-2.0116e-09	-9.4851e-10	-2.9601e-09	-1.3732e-09	6.8186e-10	-6.9136e-10	-5.3554e-09	1.7144e-09	-3.641e-09	-3.3728e-09	2.9382e-09	-4.3458e-10
4.933e-09	7.1788e-10	5.6508e-09	8.3851e-09	2.2721e-09	1.0657e-08	1.1396e-09	2.2855e-09	3.4251e-09	-7.8396e-09	1.595e-09	-6.2446e-09	-7.1675e-09	2.5927e-09	-4.5747e-09	2.6982e-09	-1.4131e-09	1.2852e-09	-1.8329e-09	1.9515e-09	1.186e-10	-1.1386e-08	1.5844e-09	-9.8019e-09	-1.6089e-08	1.808e-09	-1.4281e-08	-8.0835e-09	3.2044e-09	-4.879e-09	6.7592e-09	-3.9797e-09	2.7795e-09	-5.529e-10	-3.1025e-09	-3.6554e-09	-1.8597e-10	1.9173e-09	1.7313e-09	-4.0062e-09	5.7369e-09	1.7307e-09	-1.2392e-08	5.5028e-09	-6.8893e-09	2.8698e-09	-5.3901e-11	2.8159e-09	-3.054e-09	-1.1185e-09	-4.1725e-09	-2.8742e-09	1.689e-09	-1.1852e-09	-9.6845e-09	2.2237e-09	-7.4608e-09	-4.1051e-09	4.5595e-09	4.5443e-10
6.2405e-09	1.4411e-09	7.6816e-09	1.0741e-08	3.4603e-09	1.4202e-08	2.1524e-10	3.0556e-09	3.2709e-09	-1.4977e-08	1.1522e-09	-1.3825e-08	-9.4819e-09	2.9039e-09	-6.578e-09	4.022e-09	-2.2911e-09	1.7309e-09	-3.4396e-09	3.1636e-09	-2.7608e-10	-1.5669e-08	2.1169e-09	-1.3552e-08	-2.1138e-08	3.107e-09	-1.8031e-08	-8.934e-09	3.9104e-09	-5.0236e-09	7.7429e-09	-1.7928e-09	5.95e-09	-2.0952e-09	-1.4354e-09	-3.5306e-09	-3.1809e-09	2.2037e-09	-9.7719e-10	-5.5479e-09	8.6324e-09	3.0845e-09	-1.6837e-08	7.1284e-09	-9.7085e-09	3.4078e-09	1.0553e-09	4.463e-09	-4.0902e-09	-1.286e-09	-5.3762e-09	-4.3702e-09	2.6932e-09	-1.677e-09	-1.3995e-08	2.7281e-09	-1.1267e-08	-4.8284e-09	6.1716e-09	1.3432e-09
7.5376e-09	2.1636e-09	9.7012e-09	1.3081e-08	4.6447e-09	1.7725e-08	-7.1291e-10	3.8211e-09	3.1082e-09	-2.2104e-08	7.0534e-10	-2.1398e-08	-1.1781e-08	3.209e-09	-8.5725e-09	5.3409e-09	-3.1667e-09	2.1742e-09	-5.0436e-09	4.3721e-09	-6.7152e-10	-1.9929e-08	2.6462e-09	-1.7283e-08	-2.6154e-08	4.403e-09	-2.1751e-08	-9.766e-09	4.6094e-09	-5.1566e-09	8.7114e-09	4.0612e-10	9.1175e-09	-3.6379e-09	2.4113e-10	-3.3968e-09	-6.1788e-09	2.4856e-09	-3.6932e-09	-7.0822e-09	1.1517e-08	4.435e-09	-2.1257e-08	8.7424e-09	-1.2515e-08	3.9395e-09	2.1656e-09	6.1051e-09	-5.1202e-09	-1.4511e-09	-6.5713e-09	-5.8612e-09	3.6945e-09	-2.1667e-09	-1.8288e-08	3.2278e-09	-1.506e-08	-5.5426e-09	7.7743e-09	2.2317e-09
8.8244e-09	2.8851e-09	1.1709e-08	1.5403e-08	5.8249e-09	2.1227e-08	-1.6447e-09	4.5817e-09	2.9369e-09	-2.9218e-08	2.5461e-10	-2.8963e-08	-1.4066e-08	3.5081e-09	-1.0558e-08	6.6547e-09	-4.0399e-09	2.6148e-09	-6.6447e-09	5.5771e-09	-1.0677e-09	-2.4166e-08	3.1721e-09	-2.0994e-08	-3.1137e-08	5.696e-09	-2.5441e-08	-1.058e-08	5.3014e-09	-5.2783e-09	9.6648e-09	2.617e-09	1.2282e-08	-5.1809e-09	1.927e-09	-3.2539e-09	-9.1794e-09	2.7632e-09	-6.4162e-09	-8.6088e-09	1.4391e-08	5.782e-09	-2.5652e-08	1.0345e-08	-1.5308e-08	4.4652e-09	3.2771e-09	7.7423e-09	-6.1437e-09	-1.6138e-09	-7.7575e-09	-7.3473e-09	4.6927e-09	-2.6546e-09	-2.2561e-08	3.7226e-09	-1.8838e-08	-6.2479e-09	9.3676e-09	3.1197e-09
1.0101e-08	3.6055e-09	1.3706e-08	1.7707e-08	7.0009e-09	2.4708e-08	-2.5801e-09	5.3374e-09	2.7573e-09	-3.6319e-08	-1.9996e-10	-3.6518e-08	-1.6336e-08	3.8011e-09	-1.2535e-08	7.9634e-09	-4.9108e-09	3.0526e-09	-8.2429e-09	6.7785e-09	-1.4644e-09	-2.838e-08	3.6946e-09	-2.4686e-08	-3.6086e-08	6.9859e-09	-2.91e-08	-1.1375e-08	5.9863e-09	-5.3888e-09	1.0603e-08	4.8398e-09	1.5443e-08	-6.7241e-09	3.6221e-09	-3.102e-09	-1.2182e-08	3.0364e-09	-9.146e-09	-1.0128e-08	1.7253e-08	7.1256e-09	-3.0023e-08	1.1935e-08	-1.8088e-08	4.9851e-09	4.3897e-09	9.3747e-09	-7.1607e-09	-1.774e-09	-8.9348e-09	-8.8284e-09	5.6877e-09	-3.1408e-09	-2.6815e-08	4.2126e-09	-2.2603e-08	-6.9441e-09	1.0951e-08	4.0072e-09
1.1366e-08	4.3248e-09	1.5691e-08	1.9995e-08	8.1726e-09	2.8168e-08	-3.519e-09	6.0882e-09	2.5692e-09	-4.3406e-08	-6.5833e-10	-4.4064e-08	-1.859e-08	4.0879e-09	-1.4502e-08	9.2669e-09	-5.7794e-09	3.4875e-09	-9.8381e-09	7.9764e-09	-1.8617e-09	-3.2571e-08	4.2136e-09	-2.8357e-08	-4.1001e-08	8.2725e-09	-3.2729e-08	-1.2152e-08	6.6641e-09	-5.4883e-09	1.1527e-08	7.0742e-09	1.8601e-08	-8.2673e-09	5.326e-09	-2.9412e-09	-1.5188e-08	3.3054e-09	-1.1882e-08	-1.1639e-08	2.0104e-08	8.4655e-09	-3.4368e-08	1.3514e-08	-2.0854e-08	5.4993e-09	5.5032e-09	1.1002e-08	-8.1711e-09	-1.9318e-09	-1.0103e-08	-1.0305e-08	6.6793e-09	-3.6254e-09	-3.105e-08	4.6977e-09	-2.6352e-08	-7.6312e-09	1.2525e-08	4.8941e-09
1.2621e-08	5.0429e-09	1.7664e-08	2.2266e-08	9.3399e-09	3.1606e-08	-4.4612e-09	6.834e-09	2.3728e-09	-5.0479e-08	-1.1204e-09	-5.16e-08	-2.0829e-08	4.3687e-09	-1.646e-08	1.0565e-08	-6.6457e-09	3.9192e-09	-1.143e-08	9.1706e-09	-2.2595e-09	-3.6737e-08	4.729e-09	-3.2008e-08	-4.5882e-08	9.5557e-09	-3.6327e-08	-1.2912e-08	7.3346e-09	-5.5769e-09	1.2435e-08	9.3202e-09	2.1755e-08	-9.8103e-09	7.0387e-09	-2.7716e-09	-1.8194e-08	3.5703e-09	-1.4624e-08	-1.3142e-08	2.2944e-08	9.8018e-09	-3.8687e-08	1.5081e-08	-2.3606e-08	6.008e-09	6.6175e-09	1.2626e-08	-9.1747e-09	-2.0871e-09	-1.1262e-08	-1.1776e-08	7.6675e-09	-4.1085e-09	-3.5265e-08	5.178e-09	-3.0087e-08	-8.3094e-09	1.409e-08	5.7802e-09
1.3866e-08	5.7596e-09	1.9625e-08	2.452e-08	1.0503e-08	3.5023e-08	-5.4067e-09	7.5748e-09	2.168e-09	-5.7537e-08	-1.5862e-09	-5.9124e-08	-2.3052e-08	4.6433e-09	-1.8409e-08	1.1858e-08	-7.5099e-09	4.3476e-09	-1.3019e-08	1.0361e-08	-2.6577e-09	-4.088e-08	5.2408e-09	-3.5639e-08	-5.0729e-08	1.0836e-08	-3.9894e-08	-1.3653e-08	7.9979e-09	-5.6547e-09	1.3329e-08	1.1578e-08	2.4907e-08	-1.1353e-08	8.76e-09	-2.5931e-09	-2.1203e-08	3.831e-09	-1.7372e-08	-1.4637e-08	2.5771e-08	1.1134e-08	-4.2981e-08	1.6635e-08	-2.6345e-08	6.5116e-09	7.7327e-09	1.4244e-08	-1.0171e-08	-2.2399e-09	-1.2411e-08	-1.3243e-08	8.6522e-09	-4.5904e-09	-3.9461e-08	5.6533e-09	-3.3807e-08	-8.9784e-09	1.5644e-08	6.6655e-09
1.5099e-08	6.4749e-09	2.1574e-08	2.6757e-08	1.1661e-08	3.8418e-08	-6.3554e-09	8.3104e-09	1.955e-09	-6.458e-08	-2.0555e-09	-6.6636e-08	-2.526e-08	4.9117e-09	-2.0348e-08	1.3145e-08	-8.3721e-09	4.7725e-09	-1.4604e-08	1.1548e-08	-3.0563e-09	-4.4999e-08	5.7487e-09	-3.925e-08	-5.5541e-08	1.2112e-08	-4.3429e-08	-1.4376e-08	8.6538e-09	-5.722e-09	1.4208e-08	1.3847e-08	2.8054e-08	-1.2895e-08	1.049e-08	-2.4059e-09	-2.4212e-08	4.0876e-09	-2.0124e-08	-1.6124e-08	2.8587e-08	1.2463e-08	-4.7248e-08	1.8178e-08	-2.907e-08	7.0101e-09	8.8487e-09	1.5859e-08	-1.1161e-08	-2.3902e-09	-1.3551e-08	-1.4704e-08	9.6331e-09	-5.0711e-09	-4.3636e-08	6.1237e-09	-3.7512e-08	-9.6384e-09	1.7188e-08	7.5498e-09
1.6322e-08	7.1886e-09	2.351e-08	2.8977e-08	1.2814e-08	4.1791e-08	-7.3071e-09	9.0409e-09	1.7338e-09	-7.1607e-08	-2.5284e-09	-7.4136e-08	-2.7452e-08	5.1739e-09	-2.2278e-08	1.4426e-08	-9.2322e-09	5.1938e-09	-1.6186e-08	1.2731e-08	-3.4551e-09	-4.9093e-08	6.2529e-09	-4.284e-08	-6.0318e-08	1.3384e-08	-4.6934e-08	-1.5081e-08	9.3022e-09	-5.7788e-09	1.5072e-08	1.6127e-08	3.1199e-08	-1.4437e-08	1.2227e-08	-2.21e-09	-2.7222e-08	4.3404e-09	-2.2882e-08	-1.7603e-08	3.1391e-08	1.3788e-08	-5.1489e-08	1.9709e-08	-3.178e-08	7.5038e-09	9.9653e-09	1.7469e-08	-1.2143e-08	-2.5381e-09	-1.4682e-08	-1.6161e-08	1.061e-08	-5.5507e-09	-4.779e-08	6.5891e-09	-4.1201e-08	-1.0289e-08	1.8722e-08	8.4331e-09
1.7533e-08	7.9007e-09	2.5434e-08	3.118e-08	1.3963e-08	4.5142e-08	-8.2618e-09	9.7661e-09	1.5044e-09	-7.8617e-08	-3.0049e-09	-8.1622e-08	-2.9628e-08	5.4299e-09	-2.4198e-08	1.5702e-08	-1.009e-08	5.6112e-09	-1.7765e-08	1.3911e-08	-3.8541e-09	-5.3163e-08	6.7531e-09	-4.641e-08	-6.5061e-08	1.4653e-08	-5.0407e-08	-1.5769e-08	9.9432e-09	-5.8253e-09	1.5922e-08	1.8418e-08	3.434e-08	-1.5978e-08	1.3973e-08	-2.0055e-09	-3.0233e-08	4.5892e-09	-2.5644e-08	-1.9073e-08	3.4182e-08	1.5109e-08	-5.5703e-08	2.1227e-08	-3.4476e-08	7.9929e-09	1.1082e-08	1.9075e-08	-1.3119e-08	-2.6833e-09	-1.5802e-08	-1.7613e-08	1.1583e-08	-6.0295e-09	-5.1924e-08	7.0496e-09	-4.4875e-08	-1.0931e-08	2.0246e-08	9.3153e-09
1.8734e-08	8.611e-09	2.7345e-08	3.3366e-08	1.5106e-08	4.8472e-08	-9.2193e-09	1.0486e-08	1.2669e-09	-8.561e-08	-3.4847e-09	-8.9095e-08	-3.1788e-08	5.6796e-09	-2.6109e-08	1.6971e-08	-1.0947e-08	6.0247e-09	-1.934e-08	1.5087e-08	-4.2531e-09	-5.7209e-08	7.2493e-09	-4.9959e-08	-6.9768e-08	1.5918e-08	-5.3849e-08	-1.6438e-08	1.0577e-08	-5.8617e-09	1.6757e-08	2.072e-08	3.7477e-08	-1.7519e-08	1.5726e-08	-1.7924e-09	-3.3244e-08	4.8343e-09	-2.8409e-08	-2.0535e-08	3.6961e-08	1.6426e-08	-5.9891e-08	2.2734e-08	-3.7157e-08	8.4776e-09	1.22e-08	2.0678e-08	-1.4087e-08	-2.8261e-09	-1.6913e-08	-1.906e-08	1.2552e-08	-6.5075e-09	-5.6037e-08	7.5051e-09	-4.8532e-08	-1.1564e-08	2.176e-08	1.0196e-08
1.9924e-08	9.3195e-09	2.9243e-08	3.5535e-08	1.6245e-08	5.178e-08	-1.0179e-08	1.1201e-08	1.0213e-09	-9.2585e-08	-3.968e-09	-9.6553e-08	-3.3932e-08	5.923e-09	-2.8009e-08	1.8235e-08	-1.1801e-08	6.4339e-09	-2.0911e-08	1.6259e-08	-4.6523e-09	-6.1229e-08	7.7415e-09	-5.3488e-08	-7.4439e-08	1.7179e-08	-5.726e-08	-1.7091e-08	1.1203e-08	-5.8881e-09	1.7578e-08	2.3033e-08	4.0611e-08	-1.9058e-08	1.7487e-08	-1.5709e-09	-3.6254e-08	5.0756e-09	-3.1178e-08	-2.1989e-08	3.9727e-08	1.7739e-08	-6.4051e-08	2.4228e-08	-3.9823e-08	8.9582e-09	1.3318e-08	2.2276e-08	-1.5047e-08	-2.9663e-09	-1.8013e-08	-2.0502e-08	1.3517e-08	-6.9849e-09	-6.0128e-08	7.9556e-09	-5.2173e-08	-1.2187e-08	2.3263e-08	1.1076e-08
2.1102e-08	1.0026e-08	3.1128e-08	3.7688e-08	1.7378e-08	5.5066e-08	-1.1142e-08	1.191e-08	7.6773e-10	-9.9541e-08	-4.4546e-09	-1.04e-07	-3.606e-08	6.1602e-09	-2.99e-08	1.9493e-08	-1.2654e-08	6.8388e-09	-2.2478e-08	1.7427e-08	-5.0513e-09	-6.5225e-08	8.2294e-09	-5.6996e-08	-7.9076e-08	1.8437e-08	-6.0639e-08	-1.7725e-08	1.1821e-08	-5.9046e-09	1.8384e-08	2.5357e-08	4.3741e-08	-2.0596e-08	1.9255e-08	-1.3409e-09	-3.9264e-08	5.3133e-09	-3.3951e-08	-2.3433e-08	4.2481e-08	1.9047e-08	-6.8184e-08	2.571e-08	-4.2474e-08	9.4348e-09	1.4437e-08	2.3872e-08	-1.5999e-08	-3.1039e-09	-1.9103e-08	-2.194e-08	1.4478e-08	-7.4618e-09	-6.4198e-08	8.4011e-09	-5.5797e-08	-1.2802e-08	2.4756e-08	1.1954e-08
2.2269e-08	1.073e-08	3.2999e-08	3.9824e-08	1.8506e-08	5.833e-08	-1.2108e-08	1.2614e-08	5.0622e-10	-1.0648e-07	-4.9446e-09	-1.1142e-07	-3.8171e-08	6.391e-09	-3.178e-08	2.0744e-08	-1.3505e-08	7.2392e-09	-2.4041e-08	1.8591e-08	-5.4503e-09	-6.9196e-08	8.7132e-09	-6.0483e-08	-8.3676e-08	1.969e-08	-6.3986e-08	-1.8343e-08	1.2431e-08	-5.9115e-09	1.9176e-08	2.7691e-08	4.6867e-08	-2.2133e-08	2.103e-08	-1.1027e-09	-4.2273e-08	5.5475e-09	-3.6726e-08	-2.4869e-08	4.5221e-08	2.0352e-08	-7.2289e-08	2.7179e-08	-4.511e-08	9.9076e-09	1.5556e-08	2.5463e-08	-1.6944e-08	-3.2389e-09	-2.0183e-08	-2.3372e-08	1.5434e-08	-7.9383e-09	-6.8246e-08	8.8415e-09	-5.9405e-08	-1.3407e-08	2.6238e-08	1.2831e-08
2.3425e-08	1.1432e-08	3.4857e-08	4.1944e-08	1.9628e-08	6.1572e-08	-1.3075e-08	1.3312e-08	2.3682e-10	-1.134e-07	-5.4378e-09	-1.1883e-07	-4.0266e-08	6.6155e-09	-3.365e-08	2.1989e-08	-1.4355e-08	7.6348e-09	-2.5601e-08	1.9752e-08	-5.849e-09	-7.3141e-08	9.1926e-09	-6.3949e-08	-8.824e-08	2.0938e-08	-6.7302e-08	-1.8943e-08	1.3034e-08	-5.9089e-09	1.9953e-08	3.0036e-08	4.999e-08	-2.3668e-08	2.2812e-08	-8.5614e-10	-4.5281e-08	5.7782e-09	-3.9503e-08	-2.6296e-08	4.7949e-08	2.1653e-08	-7.6367e-08	2.8636e-08	-4.773e-08	1.0377e-08	1.6675e-08	2.7052e-08	-1.7881e-08	-3.3714e-09	-2.1253e-08	-2.48e-08	1.6386e-08	-8.4146e-09	-7.2272e-08	9.2769e-09	-6.2995e-08	-1.4004e-08	2.771e-08	1.3706e-08
2.4569e-08	1.2132e-08	3.6701e-08	4.4046e-08	2.0745e-08	6.4792e-08	-1.4045e-08	1.4005e-08	-4.0393e-11	-1.2029e-07	-5.9342e-09	-1.2623e-07	-4.2344e-08	6.8337e-09	-3.551e-08	2.3228e-08	-1.5203e-08	8.0254e-09	-2.7156e-08	2.0909e-08	-6.2475e-09	-7.7061e-08	9.6676e-09	-6.7394e-08	-9.2768e-08	2.2183e-08	-7.0585e-08	-1.9526e-08	1.3629e-08	-5.8969e-09	2.0717e-08	3.2391e-08	5.3108e-08	-2.5202e-08	2.4601e-08	-6.0143e-10	-4.8287e-08	6.0055e-09	-4.2282e-08	-2.7714e-08	5.0663e-08	2.2949e-08	-8.0415e-08	3.0081e-08	-5.0335e-08	1.0843e-08	1.7794e-08	2.8637e-08	-1.881e-08	-3.5012e-09	-2.2311e-08	-2.6223e-08	1.7332e-08	-8.8907e-09	-7.6276e-08	9.7073e-09	-6.6569e-08	-1.4591e-08	2.917e-08	1.4579e-08
2.5702e-08	1.283e-08	3.8531e-08	4.6133e-08	2.1857e-08	6.7989e-08	-1.5018e-08	1.4692e-08	-3.2537e-10	-1.2717e-07	-6.4339e-09	-1.336e-07	-4.4405e-08	7.0455e-09	-3.736e-08	2.446e-08	-1.6049e-08	8.411e-09	-2.8707e-08	2.2062e-08	-6.6456e-09	-8.0956e-08	1.0138e-08	-7.0818e-08	-9.726e-08	2.3423e-08	-7.3837e-08	-2.0092e-08	1.4216e-08	-5.8757e-09	2.1466e-08	3.4757e-08	5.6223e-08	-2.6734e-08	2.6395e-08	-3.386e-10	-5.1291e-08	6.2296e-09	-4.5062e-08	-2.9122e-08	5.3364e-08	2.4241e-08	-8.4436e-08	3.1513e-08	-5.2923e-08	1.1306e-08	1.8913e-08	3.0219e-08	-1.9731e-08	-3.6284e-09	-2.3359e-08	-2.7641e-08	1.8275e-08	-9.3669e-09	-8.0257e-08	1.0133e-08	-7.0124e-08	-1.5169e-08	3.062e-08	1.5451e-08
2.6823e-08	1.3525e-08	4.0347e-08	4.8202e-08	2.2962e-08	7.1164e-08	-1.5992e-08	1.5374e-08	-6.1804e-10	-1.3402e-07	-6.9367e-09	-1.4096e-07	-4.6449e-08	7.2509e-09	-3.9199e-08	2.5686e-08	-1.6895e-08	8.7913e-09	-3.0254e-08	2.3211e-08	-7.0432e-09	-8.4824e-08	1.0604e-08	-7.422e-08	-1.0172e-07	2.4659e-08	-7.7057e-08	-2.064e-08	1.4795e-08	-5.8455e-09	2.2202e-08	3.7133e-08	5.9334e-08	-2.8264e-08	2.8197e-08	-6.7754e-11	-5.4293e-08	6.4504e-09	-4.7843e-08	-3.0521e-08	5.6051e-08	2.5529e-08	-8.8428e-08	3.2933e-08	-5.5495e-08	1.1766e-08	2.0033e-08	3.1799e-08	-2.0644e-08	-3.7529e-09	-2.4397e-08	-2.9055e-08	1.9212e-08	-9.8433e-09	-8.4215e-08	1.0553e-08	-7.3662e-08	-1.5738e-08	3.2058e-08	1.6321e-08
2.7933e-08	1.4217e-08	4.2149e-08	5.0255e-08	2.4061e-08	7.4317e-08	-1.6968e-08	1.605e-08	-9.1834e-10	-1.4086e-07	-7.4427e-09	-1.483e-07	-4.8477e-08	7.4499e-09	-4.1027e-08	2.6905e-08	-1.7739e-08	9.166e-09	-3.1796e-08	2.4356e-08	-7.4404e-09	-8.8667e-08	1.1065e-08	-7.7602e-08	-1.0613e-07	2.589e-08	-8.0244e-08	-2.1172e-08	1.5366e-08	-5.8064e-09	2.2923e-08	3.9518e-08	6.2442e-08	-2.9792e-08	3.0003e-08	2.1104e-10	-5.7293e-08	6.6682e-09	-5.0625e-08	-3.1911e-08	5.8724e-08	2.6813e-08	-9.239e-08	3.434e-08	-5.805e-08	1.2224e-08	2.1152e-08	3.3376e-08	-2.1548e-08	-3.8747e-09	-2.5423e-08	-3.0464e-08	2.0144e-08	-1.032e-08	-8.8149e-08	1.0968e-08	-7.7182e-08	-1.6297e-08	3.3486e-08	1.7189e-08
2.903e-08	1.4906e-08	4.3936e-08	5.2292e-08	2.5155e-08	7.7447e-08	-1.7946e-08	1.672e-08	-1.2262e-09	-1.4767e-07	-7.9517e-09	-1.5562e-07	-5.0487e-08	7.6425e-09	-4.2844e-08	2.8117e-08	-1.8582e-08	9.5351e-09	-3.3334e-08	2.5497e-08	-7.8369e-09	-9.2484e-08	1.1522e-08	-8.0962e-08	-1.1052e-07	2.7116e-08	-8.3399e-08	-2.1687e-08	1.5929e-08	-5.7586e-09	2.3631e-08	4.1914e-08	6.5545e-08	-3.1318e-08	3.1816e-08	4.9771e-10	-6.0289e-08	6.8831e-09	-5.3406e-08	-3.329e-08	6.1383e-08	2.8093e-08	-9.6323e-08	3.5735e-08	-6.0589e-08	1.2679e-08	2.2271e-08	3.495e-08	-2.2443e-08	-3.9939e-09	-2.6437e-08	-3.1867e-08	2.1071e-08	-1.0797e-08	-9.2061e-08	1.1378e-08	-8.0683e-08	-1.6848e-08	3.4902e-08	1.8054e-08
3.0116e-08	1.5593e-08	4.5709e-08	5.4312e-08	2.6242e-08	8.0554e-08	-1.8926e-08	1.7384e-08	-1.5416e-09	-1.5445e-07	-8.4638e-09	-1.6292e-07	-5.248e-08	7.8286e-09	-4.4651e-08	2.9322e-08	-1.9423e-08	9.8983e-09	-3.4868e-08	2.6635e-08	-8.2327e-09	-9.6275e-08	1.1974e-08	-8.4301e-08	-1.1486e-07	2.8337e-08	-8.6522e-08	-2.2186e-08	1.6483e-08	-5.7022e-09	2.4325e-08	4.4319e-08	6.8644e-08	-3.2842e-08	3.3634e-08	7.9215e-10	-6.3282e-08	7.095e-09	-5.6187e-08	-3.466e-08	6.4029e-08	2.9368e-08	-1.0023e-07	3.7117e-08	-6.311e-08	1.3132e-08	2.339e-08	3.6522e-08	-2.333e-08	-4.1103e-09	-2.7441e-08	-3.3267e-08	2.1992e-08	-1.1274e-08	-9.5948e-08	1.1782e-08	-8.4166e-08	-1.7389e-08	3.6307e-08	1.8918e-08
3.1191e-08	1.6276e-08	4.7467e-08	5.6316e-08	2.7323e-08	8.3638e-08	-1.9907e-08	1.8043e-08	-1.8643e-09	-1.6122e-07	-8.979e-09	-1.7019e-07	-5.4455e-08	8.0084e-09	-4.6447e-08	3.052e-08	-2.0264e-08	1.0255e-08	-3.6397e-08	2.7769e-08	-8.6278e-09	-1.0004e-07	1.2421e-08	-8.7618e-08	-1.1917e-07	2.9554e-08	-8.9613e-08	-2.2668e-08	1.703e-08	-5.6375e-09	2.5005e-08	4.6734e-08	7.1739e-08	-3.4363e-08	3.5458e-08	1.0943e-09	-6.6272e-08	7.3041e-09	-5.8968e-08	-3.602e-08	6.666e-08	3.064e-08	-1.041e-07	3.8486e-08	-6.5615e-08	1.3583e-08	2.4509e-08	3.8092e-08	-2.4209e-08	-4.224e-09	-2.8433e-08	-3.4661e-08	2.2908e-08	-1.1753e-08	-9.9812e-08	1.2182e-08	-8.763e-08	-1.7921e-08	3.7701e-08	1.978e-08
3.2253e-08	1.6957e-08	4.9209e-08	5.8303e-08	2.8397e-08	8.67e-08	-2.089e-08	1.8696e-08	-2.1945e-09	-1.6795e-07	-9.4972e-09	-1.7745e-07	-5.6413e-08	8.1817e-09	-4.8232e-08	3.171e-08	-2.1104e-08	1.0606e-08	-3.7921e-08	2.8899e-08	-9.022e-09	-1.0378e-07	1.2862e-08	-9.0914e-08	-1.2344e-07	3.0766e-08	-9.2671e-08	-2.3133e-08	1.7568e-08	-5.5645e-09	2.5672e-08	4.9158e-08	7.483e-08	-3.5882e-08	3.7286e-08	1.4041e-09	-6.9257e-08	7.5106e-09	-6.1747e-08	-3.737e-08	6.9277e-08	3.1907e-08	-1.0794e-07	3.9843e-08	-6.8101e-08	1.4033e-08	2.5628e-08	3.966e-08	-2.5078e-08	-4.335e-09	-2.9413e-08	-3.605e-08	2.3819e-08	-1.2232e-08	-1.0365e-07	1.2576e-08	-9.1075e-08	-1.8444e-08	3.9083e-08	2.0639e-08
3.3303e-08	1.7634e-08	5.0937e-08	6.0274e-08	2.9465e-08	8.9739e-08	-2.1875e-08	1.9343e-08	-2.5319e-09	-1.7467e-07	-1.0018e-08	-1.8469e-07	-5.8354e-08	8.3485e-09	-5.0005e-08	3.2894e-08	-2.1943e-08	1.0951e-08	-3.944e-08	3.0025e-08	-9.4152e-09	-1.0749e-07	1.3299e-08	-9.4189e-08	-1.2767e-07	3.1973e-08	-9.5696e-08	-2.3582e-08	1.8098e-08	-5.4835e-09	2.6325e-08	5.1592e-08	7.7917e-08	-3.7398e-08	3.9119e-08	1.7213e-09	-7.2238e-08	7.7145e-09	-6.4524e-08	-3.871e-08	7.1879e-08	3.3169e-08	-1.1176e-07	4.1187e-08	-7.057e-08	1.4481e-08	2.6746e-08	4.1227e-08	-2.5939e-08	-4.4432e-09	-3.0382e-08	-3.7435e-08	2.4724e-08	-1.2711e-08	-1.0747e-07	1.2966e-08	-9.4501e-08	-1.8958e-08	4.0454e-08	2.1496e-08
3.4341e-08	1.8307e-08	5.2648e-08	6.2229e-08	3.0526e-08	9.2755e-08	-2.286e-08	1.9984e-08	-2.8765e-09	-1.8136e-07	-1.0543e-08	-1.919e-07	-6.0277e-08	8.5089e-09	-5.1768e-08	3.4069e-08	-2.2781e-08	1.1288e-08	-4.0954e-08	3.1147e-08	-9.8074e-09	-1.1117e-07	1.3731e-08	-9.7441e-08	-1.3186e-07	3.3174e-08	-9.8689e-08	-2.4015e-08	1.862e-08	-5.3945e-09	2.6965e-08	5.4035e-08	8.0999e-08	-3.891e-08	4.0956e-08	2.0461e-09	-7.5215e-08	7.9159e-09	-6.7299e-08	-4.0039e-08	7.4467e-08	3.4428e-08	-1.1554e-07	4.2518e-08	-7.3021e-08	1.4928e-08	2.7864e-08	4.2791e-08	-2.679e-08	-4.5486e-09	-3.1338e-08	-3.8815e-08	2.5623e-08	-1.3192e-08	-1.1126e-07	1.335e-08	-9.7907e-08	-1.9462e-08	4.1813e-08	2.2351e-08
3.5367e-08	1.8978e-08	5.4345e-08	6.4168e-08	3.158e-08	9.5747e-08	-2.3847e-08	2.0619e-08	-3.2282e-09	-1.8802e-07	-1.107e-08	-1.9909e-07	-6.2182e-08	8.6628e-09	-5.3519e-08	3.5238e-08	-2.3619e-08	1.1619e-08	-4.2464e-08	3.2265e-08	-1.0199e-08	-1.1483e-07	1.4158e-08	-1.0067e-07	-1.3602e-07	3.4371e-08	-1.0165e-07	-2.4431e-08	1.9133e-08	-5.2979e-09	2.7591e-08	5.6487e-08	8.4078e-08	-4.042e-08	4.2798e-08	2.3781e-09	-7.8186e-08	8.1149e-09	-7.0071e-08	-4.1357e-08	7.704e-08	3.5683e-08	-1.1929e-07	4.3837e-08	-7.5454e-08	1.5374e-08	2.8981e-08	4.4355e-08	-2.7632e-08	-4.6512e-09	-3.2283e-08	-4.019e-08	2.6516e-08	-1.3674e-08	-1.1502e-07	1.3729e-08	-1.0129e-07	-1.9958e-08	4.316e-08	2.3203e-08
3.638e-08	1.9644e-08	5.6025e-08	6.609e-08	3.2627e-08	9.8717e-08	-2.4834e-08	2.1247e-08	-3.587e-09	-1.9465e-07	-1.16e-08	-2.0625e-07	-6.4069e-08	8.8102e-09	-5.5259e-08	3.6398e-08	-2.4455e-08	1.1943e-08	-4.3968e-08	3.338e-08	-1.0588e-08	-1.1846e-07	1.4579e-08	-1.0388e-07	-1.4014e-07	3.5562e-08	-1.0458e-07	-2.4831e-08	1.9638e-08	-5.1936e-09	2.8204e-08	5.8948e-08	8.7152e-08	-4.1927e-08	4.4644e-08	2.7174e-09	-8.1151e-08	8.3117e-09	-7.284e-08	-4.2665e-08	7.9598e-08	3.6933e-08	-1.2301e-07	4.5142e-08	-7.7868e-08	1.5819e-08	3.0098e-08	4.5917e-08	-2.8465e-08	-4.7509e-09	-3.3215e-08	-4.156e-08	2.7403e-08	-1.4157e-08	-1.1876e-07	1.4102e-08	-1.0466e-07	-2.0444e-08	4.4496e-08	2.4052e-08
3.7382e-08	2.0307e-08	5.7689e-08	6.7996e-08	3.3667e-08	1.0166e-07	-2.5823e-08	2.187e-08	-3.9528e-09	-2.0126e-07	-1.2133e-08	-2.134e-07	-6.5938e-08	8.9511e-09	-5.6987e-08	3.7551e-08	-2.5292e-08	1.2259e-08	-4.5467e-08	3.449e-08	-1.0977e-08	-1.2206e-07	1.4995e-08	-1.0707e-07	-1.4422e-07	3.6747e-08	-1.0747e-07	-2.5216e-08	2.0134e-08	-5.082e-09	2.8804e-08	6.1417e-08	9.0221e-08	-4.343e-08	4.6494e-08	3.0639e-09	-8.4111e-08	8.5063e-09	-7.5605e-08	-4.3961e-08	8.2141e-08	3.818e-08	-1.267e-07	4.6435e-08	-8.0263e-08	1.6263e-08	3.1215e-08	4.7478e-08	-2.9288e-08	-4.8478e-09	-3.4136e-08	-4.2925e-08	2.8284e-08	-1.4642e-08	-1.2248e-07	1.4471e-08	-1.0801e-07	-2.0921e-08	4.582e-08	2.4899e-08
3.837e-08	2.0967e-08	5.9337e-08	6.9886e-08	3.47e-08	1.0459e-07	-2.6812e-08	2.2487e-08	-4.3255e-09	-2.0784e-07	-1.2669e-08	-2.2051e-07	-6.7789e-08	9.0856e-09	-5.8704e-08	3.8696e-08	-2.6128e-08	1.2568e-08	-4.6961e-08	3.5597e-08	-1.1364e-08	-1.2564e-07	1.5405e-08	-1.1024e-07	-1.4826e-07	3.7927e-08	-1.1033e-07	-2.5585e-08	2.0622e-08	-4.9631e-09	2.9391e-08	6.3896e-08	9.3287e-08	-4.4929e-08	4.8347e-08	3.4175e-09	-8.7065e-08	8.6989e-09	-7.8366e-08	-4.5247e-08	8.4669e-08	3.9422e-08	-1.3036e-07	4.7716e-08	-8.264e-08	1.6708e-08	3.233e-08	4.9038e-08	-3.0101e-08	-4.9419e-09	-3.5043e-08	-4.4286e-08	2.9158e-08	-1.5128e-08	-1.2616e-07	1.4834e-08	-1.1133e-07	-2.1388e-08	4.7132e-08	2.5744e-08
3.9347e-08	2.1622e-08	6.0968e-08	7.1759e-08	3.5725e-08	1.0748e-07	-2.7803e-08	2.3098e-08	-4.705e-09	-2.144e-07	-1.3208e-08	-2.276e-07	-6.9622e-08	9.2135e-09	-6.0409e-08	3.9833e-08	-2.6964e-08	1.287e-08	-4.845e-08	3.67e-08	-1.175e-08	-1.2919e-07	1.581e-08	-1.1338e-07	-1.5226e-07	3.9102e-08	-1.1316e-07	-2.5938e-08	2.1101e-08	-4.8372e-09	2.9965e-08	6.6383e-08	9.6348e-08	-4.6425e-08	5.0203e-08	3.778e-09	-9.0012e-08	8.8896e-09	-8.1123e-08	-4.6521e-08	8.7181e-08	4.066e-08	-1.3398e-07	4.8983e-08	-8.4996e-08	1.7152e-08	3.3445e-08	5.0598e-08	-3.0905e-08	-5.033e-09	-3.5938e-08	-4.5642e-08	3.0026e-08	-1.5615e-08	-1.2983e-07	1.5192e-08	-1.1464e-07	-2.1847e-08	4.8432e-08	2.6585e-08
4.0311e-08	2.2273e-08	6.2583e-08	7.3617e-08	3.6743e-08	1.1036e-07	-2.8793e-08	2.3702e-08	-5.0912e-09	-2.2092e-07	-1.375e-08	-2.3467e-07	-7.1437e-08	9.335e-09	-6.2102e-08	4.0962e-08	-2.7799e-08	1.3163e-08	-4.9933e-08	3.7799e-08	-1.2134e-08	-1.3271e-07	1.6209e-08	-1.165e-07	-1.5623e-07	4.0271e-08	-1.1596e-07	-2.6275e-08	2.1571e-08	-4.7043e-09	3.0526e-08	6.8879e-08	9.9404e-08	-4.7917e-08	5.2063e-08	4.1455e-09	-9.2953e-08	9.0784e-09	-8.3874e-08	-4.7784e-08	8.9678e-08	4.1895e-08	-1.3757e-07	5.0238e-08	-8.7334e-08	1.7597e-08	3.456e-08	5.2157e-08	-3.1699e-08	-5.1212e-09	-3.682e-08	-4.6992e-08	3.0888e-08	-1.6104e-08	-1.3346e-07	1.5545e-08	-1.1792e-07	-2.2296e-08	4.972e-08	2.7424e-08
4.1262e-08	2.2919e-08	6.4181e-08	7.5458e-08	3.7753e-08	1.1321e-07	-2.9784e-08	2.43e-08	-5.484e-09	-2.2742e-07	-1.4295e-08	-2.4171e-07	-7.3233e-08	9.45e-09	-6.3783e-08	4.2083e-08	-2.8634e-08	1.3448e-08	-5.1411e-08	3.8894e-08	-1.2517e-08	-1.3621e-07	1.6603e-08	-1.196e-07	-1.6015e-07	4.1434e-08	-1.1872e-07	-2.6597e-08	2.2032e-08	-4.5647e-09	3.1074e-08	7.1383e-08	1.0246e-07	-4.9405e-08	5.3925e-08	4.5197e-09	-9.5886e-08	9.2655e-09	-8.662e-08	-4.9035e-08	9.216e-08	4.3125e-08	-1.4113e-07	5.1479e-08	-8.9651e-08	1.8042e-08	3.5673e-08	5.3716e-08	-3.2483e-08	-5.2064e-09	-3.769e-08	-4.8338e-08	3.1743e-08	-1.6595e-08	-1.3707e-07	1.5892e-08	-1.2118e-07	-2.2736e-08	5.0995e-08	2.8259e-08
4.22e-08	2.3562e-08	6.5762e-08	7.7284e-08	3.8755e-08	1.1604e-07	-3.0776e-08	2.4892e-08	-5.8834e-09	-2.3388e-07	-1.4843e-08	-2.4873e-07	-7.5011e-08	9.5584e-09	-6.5452e-08	4.3195e-08	-2.947e-08	1.3725e-08	-5.2883e-08	3.9985e-08	-1.2898e-08	-1.3967e-07	1.6991e-08	-1.2268e-07	-1.6404e-07	4.2592e-08	-1.2145e-07	-2.6903e-08	2.2485e-08	-4.4186e-09	3.1609e-08	7.3895e-08	1.055e-07	-5.0889e-08	5.5789e-08	4.9006e-09	-9.8811e-08	9.4511e-09	-8.936e-08	-5.0274e-08	9.4626e-08	4.4352e-08	-1.4466e-07	5.2708e-08	-9.1948e-08	1.8488e-08	3.6786e-08	5.5274e-08	-3.3257e-08	-5.2887e-09	-3.8546e-08	-4.9679e-08	3.2591e-08	-1.7088e-08	-1.4066e-07	1.6234e-08	-1.2442e-07	-2.3166e-08	5.2259e-08	2.9092e-08
4.3126e-08	2.42e-08	6.7326e-08	7.9093e-08	3.9749e-08	1.1884e-07	-3.1767e-08	2.5478e-08	-6.2893e-09	-2.4032e-07	-1.5393e-08	-2.5571e-07	-7.677e-08	9.6603e-09	-6.711e-08	4.4298e-08	-3.0305e-08	1.3993e-08	-5.435e-08	4.1073e-08	-1.3277e-08	-1.4311e-07	1.7372e-08	-1.2574e-07	-1.6789e-07	4.3743e-08	-1.2415e-07	-2.7195e-08	2.2929e-08	-4.266e-09	3.2132e-08	7.6415e-08	1.0855e-07	-5.2368e-08	5.7656e-08	5.2881e-09	-1.0173e-07	9.6352e-09	-9.2093e-08	-5.1501e-08	9.7076e-08	4.5575e-08	-1.4815e-07	5.3924e-08	-9.4225e-08	1.8935e-08	3.7898e-08	5.6833e-08	-3.4021e-08	-5.3681e-09	-3.9389e-08	-5.1015e-08	3.3432e-08	-1.7583e-08	-1.4421e-07	1.6571e-08	-1.2764e-07	-2.3588e-08	5.351e-08	2.9922e-08
4.4039e-08	2.4833e-08	6.8872e-08	8.0886e-08	4.0735e-08	1.2162e-07	-3.2759e-08	2.6057e-08	-6.7015e-09	-2.4672e-07	-1.5947e-08	-2.6267e-07	-7.8511e-08	9.7558e-09	-6.8755e-08	4.5393e-08	-3.114e-08	1.4253e-08	-5.5811e-08	4.2157e-08	-1.3654e-08	-1.4652e-07	1.7749e-08	-1.2877e-07	-1.717e-07	4.4889e-08	-1.2681e-07	-2.7471e-08	2.3364e-08	-4.1072e-09	3.2642e-08	7.8943e-08	1.1159e-07	-5.3843e-08	5.9525e-08	5.6821e-09	-1.0464e-07	9.8179e-09	-9.482e-08	-5.2716e-08	9.951e-08	4.6794e-08	-1.5161e-07	5.5128e-08	-9.6481e-08	1.9383e-08	3.9009e-08	5.8392e-08	-3.4775e-08	-5.4444e-09	-4.0219e-08	-5.2346e-08	3.4266e-08	-1.8079e-08	-1.4774e-07	1.6902e-08	-1.3084e-07	-2.4e-08	5.4749e-08	3.0749e-08
4.4938e-08	2.5462e-08	7.04e-08	8.2664e-08	4.1713e-08	1.2438e-07	-3.375e-08	2.663e-08	-7.12e-09	-2.531e-07	-1.6503e-08	-2.696e-07	-8.0232e-08	9.8447e-09	-7.0388e-08	4.648e-08	-3.1976e-08	1.4504e-08	-5.7266e-08	4.3237e-08	-1.4029e-08	-1.4991e-07	1.8119e-08	-1.3179e-07	-1.7547e-07	4.6028e-08	-1.2944e-07	-2.7732e-08	2.3789e-08	-3.9423e-09	3.314e-08	8.1479e-08	1.1462e-07	-5.5314e-08	6.1396e-08	6.0825e-09	-1.0754e-07	9.9994e-09	-9.7539e-08	-5.3919e-08	1.0193e-07	4.8009e-08	-1.5503e-07	5.6318e-08	-9.8716e-08	1.9832e-08	4.0119e-08	5.9952e-08	-3.5518e-08	-5.5176e-09	-4.1035e-08	-5.3672e-08	3.5093e-08	-1.8578e-08	-1.5124e-07	1.7229e-08	-1.3402e-07	-2.4403e-08	5.5975e-08	3.1572e-08
4.5825e-08	2.6086e-08	7.1911e-08	8.4425e-08	4.2682e-08	1.2711e-07	-3.4742e-08	2.7197e-08	-7.5448e-09	-2.5944e-07	-1.7063e-08	-2.765e-07	-8.1936e-08	9.9271e-09	-7.2008e-08	4.7557e-08	-3.2812e-08	1.4745e-08	-5.8716e-08	4.4313e-08	-1.4402e-08	-1.5326e-07	1.8483e-08	-1.3478e-07	-1.792e-07	4.7161e-08	-1.3204e-07	-2.7978e-08	2.4206e-08	-3.7716e-09	3.3626e-08	8.4023e-08	1.1765e-07	-5.6779e-08	6.3268e-08	6.4892e-09	-1.1043e-07	1.018e-08	-1.0025e-07	-5.5109e-08	1.0433e-07	4.9221e-08	-1.5842e-07	5.7496e-08	-1.0093e-07	2.0284e-08	4.1228e-08	6.1512e-08	-3.625e-08	-5.5878e-09	-4.1838e-08	-5.4993e-08	3.5913e-08	-1.9079e-08	-1.5472e-07	1.7549e-08	-1.3717e-07	-2.4797e-08	5.7189e-08	3.2393e-08
4.6699e-08	2.6705e-08	7.3404e-08	8.617e-08	4.3643e-08	1.2981e-07	-3.5733e-08	2.7757e-08	-7.9756e-09	-2.6575e-07	-1.7625e-08	-2.8338e-07	-8.362e-08	1.0003e-08	-7.3617e-08	4.8626e-08	-3.3648e-08	1.4977e-08	-6.0159e-08	4.5386e-08	-1.4773e-08	-1.5659e-07	1.8841e-08	-1.3775e-07	-1.8289e-07	4.8288e-08	-1.346e-07	-2.8209e-08	2.4614e-08	-3.5951e-09	3.4099e-08	8.6574e-08	1.2067e-07	-5.824e-08	6.5142e-08	6.9021e-09	-1.1331e-07	1.0359e-08	-1.0295e-07	-5.6286e-08	1.0672e-07	5.043e-08	-1.6178e-07	5.866e-08	-1.0312e-07	2.0737e-08	4.2336e-08	6.3073e-08	-3.6972e-08	-5.655e-09	-4.2627e-08	-5.6309e-08	3.6726e-08	-1.9583e-08	-1.5816e-07	1.7865e-08	-1.403e-07	-2.5181e-08	5.8391e-08	3.321e-08
4.7559e-08	2.7319e-08	7.4878e-08	8.79e-08	4.4595e-08	1.325e-07	-3.6724e-08	2.8311e-08	-8.4125e-09	-2.7203e-07	-1.8191e-08	-2.9022e-07	-8.5285e-08	1.0073e-08	-7.5212e-08	4.9685e-08	-3.4485e-08	1.52e-08	-6.1597e-08	4.6455e-08	-1.5142e-08	-1.5989e-07	1.9192e-08	-1.4069e-07	-1.8654e-07	4.9409e-08	-1.3713e-07	-2.8426e-08	2.5013e-08	-3.413e-09	3.456e-08	8.9132e-08	1.2369e-07	-5.9695e-08	6.7016e-08	7.3211e-09	-1.1618e-07	1.0538e-08	-1.0565e-07	-5.745e-08	1.0909e-07	5.1635e-08	-1.651e-07	5.9812e-08	-1.0529e-07	2.1192e-08	4.3443e-08	6.4636e-08	-3.7683e-08	-5.719e-09	-4.3402e-08	-5.7619e-08	3.7531e-08	-2.0089e-08	-1.6158e-07	1.8175e-08	-1.4341e-07	-2.5556e-08	5.958e-08	3.4024e-08
4.8407e-08	2.7927e-08	7.6334e-08	8.9613e-08	4.5539e-08	1.3515e-07	-3.7714e-08	2.8859e-08	-8.8553e-09	-2.7828e-07	-1.8759e-08	-2.9704e-07	-8.6931e-08	1.0135e-08	-7.6796e-08	5.0735e-08	-3.5323e-08	1.5413e-08	-6.3029e-08	4.752e-08	-1.5508e-08	-1.6316e-07	1.9538e-08	-1.4362e-07	-1.9015e-07	5.0523e-08	-1.3963e-07	-2.8628e-08	2.5402e-08	-3.2255e-09	3.5009e-08	9.1698e-08	1.2671e-07	-6.1146e-08	6.8892e-08	7.746e-09	-1.1905e-07	1.0716e-08	-1.0833e-07	-5.8602e-08	1.1144e-07	5.2837e-08	-1.6839e-07	6.0951e-08	-1.0744e-07	2.165e-08	4.4549e-08	6.6199e-08	-3.8383e-08	-5.7799e-09	-4.4163e-08	-5.8925e-08	3.8328e-08	-2.0597e-08	-1.6497e-07	1.848e-08	-1.4649e-07	-2.5922e-08	6.0756e-08	3.4834e-08
4.9241e-08	2.8531e-08	7.7771e-08	9.1311e-08	4.6473e-08	1.3778e-07	-3.8703e-08	2.9399e-08	-9.3038e-09	-2.8449e-07	-1.9331e-08	-3.0382e-07	-8.8558e-08	1.0192e-08	-7.8366e-08	5.1776e-08	-3.6161e-08	1.5615e-08	-6.4454e-08	4.8582e-08	-1.5872e-08	-1.664e-07	1.9877e-08	-1.4652e-07	-1.9372e-07	5.1631e-08	-1.4209e-07	-2.8816e-08	2.5783e-08	-3.0328e-09	3.5446e-08	9.4271e-08	1.2972e-07	-6.2591e-08	7.0767e-08	8.1769e-09	-1.219e-07	1.0893e-08	-1.11e-07	-5.9739e-08	1.1377e-07	5.4035e-08	-1.7164e-07	6.2077e-08	-1.0956e-07	2.2111e-08	4.5654e-08	6.7764e-08	-3.9072e-08	-5.8376e-09	-4.491e-08	-6.0226e-08	3.9117e-08	-2.1108e-08	-1.6833e-07	1.878e-08	-1.4955e-07	-2.6278e-08	6.192e-08	3.5641e-08
5.0061e-08	2.9128e-08	7.919e-08	9.2992e-08	4.7398e-08	1.4039e-07	-3.9692e-08	2.9934e-08	-9.7582e-09	-2.9067e-07	-1.9905e-08	-3.1057e-07	-9.0166e-08	1.0242e-08	-7.9924e-08	5.2807e-08	-3.6999e-08	1.5808e-08	-6.5873e-08	4.964e-08	-1.6234e-08	-1.6961e-07	2.0209e-08	-1.494e-07	-1.9725e-07	5.2732e-08	-1.4452e-07	-2.8989e-08	2.6154e-08	-2.8351e-09	3.5871e-08	9.6852e-08	1.3272e-07	-6.403e-08	7.2643e-08	8.6136e-09	-1.2474e-07	1.1069e-08	-1.1367e-07	-6.0864e-08	1.1609e-07	5.5231e-08	-1.7486e-07	6.3191e-08	-1.1167e-07	2.2574e-08	4.6757e-08	6.9331e-08	-3.975e-08	-5.8922e-09	-4.5642e-08	-6.1521e-08	3.9899e-08	-2.1622e-08	-1.7166e-07	1.9074e-08	-1.5259e-07	-2.6625e-08	6.3071e-08	3.6445e-08
5.0869e-08	2.9721e-08	8.0589e-08	9.4658e-08	4.8314e-08	1.4297e-07	-4.068e-08	3.0462e-08	-1.0218e-08	-2.9681e-07	-2.0482e-08	-3.1729e-07	-9.1754e-08	1.0285e-08	-8.1469e-08	5.3829e-08	-3.7839e-08	1.599e-08	-6.7286e-08	5.0694e-08	-1.6592e-08	-1.728e-07	2.0535e-08	-1.5226e-07	-2.0074e-07	5.3827e-08	-1.4691e-07	-2.9148e-08	2.6516e-08	-2.6324e-09	3.6284e-08	9.9438e-08	1.3572e-07	-6.5463e-08	7.4519e-08	9.0559e-09	-1.2757e-07	1.1246e-08	-1.1632e-07	-6.1974e-08	1.184e-07	5.6423e-08	-1.7804e-07	6.4291e-08	-1.1375e-07	2.3041e-08	4.7859e-08	7.09e-08	-4.0416e-08	-5.9436e-09	-4.636e-08	-6.2811e-08	4.0673e-08	-2.2139e-08	-1.7496e-07	1.9362e-08	-1.556e-07	-2.6963e-08	6.4209e-08	3.7245e-08
5.1662e-08	3.0307e-08	8.197e-08	9.6308e-08	4.9221e-08	1.4553e-07	-4.1666e-08	3.0983e-08	-1.0684e-08	-3.0292e-07	-2.1063e-08	-3.2398e-07	-9.3324e-08	1.0322e-08	-8.3001e-08	5.4841e-08	-3.868e-08	1.6161e-08	-6.8693e-08	5.1745e-08	-1.6948e-08	-1.7595e-07	2.0855e-08	-1.551e-07	-2.0419e-07	5.4915e-08	-1.4928e-07	-2.9293e-08	2.6868e-08	-2.425e-09	3.6685e-08	1.0203e-07	1.3872e-07	-6.6891e-08	7.6395e-08	9.5039e-09	-1.3038e-07	1.1422e-08	-1.1896e-07	-6.3071e-08	1.2068e-07	5.7613e-08	-1.8118e-07	6.5379e-08	-1.158e-07	2.3511e-08	4.896e-08	7.2471e-08	-4.1072e-08	-5.9917e-09	-4.7063e-08	-6.4096e-08	4.1438e-08	-2.2658e-08	-1.7824e-07	1.9646e-08	-1.5859e-07	-2.7292e-08	6.5334e-08	3.8042e-08
5.2442e-08	3.0888e-08	8.333e-08	9.7942e-08	5.0117e-08	1.4806e-07	-4.2652e-08	3.1497e-08	-1.1154e-08	-3.09e-07	-2.1647e-08	-3.3064e-07	-9.4873e-08	1.0353e-08	-8.452e-08	5.5843e-08	-3.9522e-08	1.6322e-08	-7.0093e-08	5.2792e-08	-1.7302e-08	-1.7908e-07	2.1167e-08	-1.5792e-07	-2.076e-07	5.5996e-08	-1.516e-07	-2.9424e-08	2.7211e-08	-2.2131e-09	3.7075e-08	1.0463e-07	1.4171e-07	-6.8313e-08	7.827e-08	9.9573e-09	-1.3319e-07	1.1598e-08	-1.2159e-07	-6.4153e-08	1.2295e-07	5.8799e-08	-1.8429e-07	6.6454e-08	-1.1784e-07	2.3985e-08	5.0059e-08	7.4045e-08	-4.1716e-08	-6.0366e-09	-4.7752e-08	-6.5376e-08	4.2196e-08	-2.318e-08	-1.8148e-07	1.9924e-08	-1.6156e-07	-2.7611e-08	6.6446e-08	3.8835e-08
5.3209e-08	3.1463e-08	8.4672e-08	9.9561e-08	5.1005e-08	1.5057e-07	-4.3636e-08	3.2006e-08	-1.1631e-08	-3.1504e-07	-2.2233e-08	-3.3727e-07	-9.6404e-08	1.0377e-08	-8.6027e-08	5.6835e-08	-4.0364e-08	1.6471e-08	-7.1487e-08	5.3835e-08	-1.7652e-08	-1.8218e-07	2.1473e-08	-1.6071e-07	-2.1097e-07	5.707e-08	-1.539e-07	-2.9541e-08	2.7545e-08	-1.9967e-09	3.7454e-08	1.0724e-07	1.4469e-07	-6.9728e-08	8.0144e-08	1.0416e-08	-1.3598e-07	1.1774e-08	-1.2421e-07	-6.5221e-08	1.252e-07	5.9983e-08	-1.8736e-07	6.7516e-08	-1.1984e-07	2.4463e-08	5.1158e-08	7.562e-08	-4.2348e-08	-6.0783e-09	-4.8426e-08	-6.665e-08	4.2945e-08	-2.3705e-08	-1.847e-07	2.0197e-08	-1.645e-07	-2.7921e-08	6.7546e-08	3.9624e-08
5.3962e-08	3.2031e-08	8.5993e-08	1.0116e-07	5.1882e-08	1.5304e-07	-4.4619e-08	3.2507e-08	-1.2112e-08	-3.2104e-07	-2.2823e-08	-3.4386e-07	-9.7914e-08	1.0395e-08	-8.752e-08	5.7818e-08	-4.1208e-08	1.6609e-08	-7.2874e-08	5.4875e-08	-1.7999e-08	-1.8525e-07	2.1773e-08	-1.6348e-07	-2.143e-07	5.8137e-08	-1.5616e-07	-2.9645e-08	2.7869e-08	-1.7761e-09	3.7821e-08	1.0985e-07	1.4767e-07	-7.1137e-08	8.2018e-08	1.088e-08	-1.3876e-07	1.195e-08	-1.2681e-07	-6.6274e-08	1.2744e-07	6.1165e-08	-1.9039e-07	6.8565e-08	-1.2183e-07	2.4945e-08	5.2254e-08	7.7199e-08	-4.2968e-08	-6.1167e-09	-4.9085e-08	-6.7919e-08	4.3686e-08	-2.4234e-08	-1.8788e-07	2.0464e-08	-1.6742e-07	-2.8222e-08	6.8632e-08	4.041e-08
5.4701e-08	3.2594e-08	8.7294e-08	1.0275e-07	5.2749e-08	1.555e-07	-4.56e-08	3.3002e-08	-1.2599e-08	-3.2701e-07	-2.3416e-08	-3.5042e-07	-9.9406e-08	1.0406e-08	-8.9e-08	5.8789e-08	-4.2054e-08	1.6736e-08	-7.4255e-08	5.5912e-08	-1.8344e-08	-1.8829e-07	2.2065e-08	-1.6623e-07	-2.1759e-07	5.9197e-08	-1.5839e-07	-2.9735e-08	2.8183e-08	-1.5515e-09	3.8176e-08	1.1247e-07	1.5065e-07	-7.254e-08	8.389e-08	1.1349e-08	-1.4153e-07	1.2126e-08	-1.294e-07	-6.7313e-08	1.2966e-07	6.2343e-08	-1.9339e-07	6.9601e-08	-1.2379e-07	2.5431e-08	5.3349e-08	7.8781e-08	-4.3577e-08	-6.1517e-09	-4.9729e-08	-6.9183e-08	4.4418e-08	-2.4765e-08	-1.9103e-07	2.0726e-08	-1.7031e-07	-2.8513e-08	6.9706e-08	4.1192e-08
5.5426e-08	3.315e-08	8.8575e-08	1.0432e-07	5.3606e-08	1.5793e-07	-4.658e-08	3.349e-08	-1.309e-08	-3.3294e-07	-2.4012e-08	-3.5695e-07	-1.0088e-07	1.041e-08	-9.0466e-08	5.9751e-08	-4.2901e-08	1.685e-08	-7.5629e-08	5.6945e-08	-1.8685e-08	-1.9131e-07	2.2351e-08	-1.6896e-07	-2.2083e-07	6.025e-08	-1.6058e-07	-2.9811e-08	2.8488e-08	-1.3229e-09	3.852e-08	1.151e-07	1.5362e-07	-7.3936e-08	8.576e-08	1.1824e-08	-1.4428e-07	1.2303e-08	-1.3198e-07	-6.8337e-08	1.3186e-07	6.352e-08	-1.9635e-07	7.0625e-08	-1.2572e-07	2.5922e-08	5.4443e-08	8.0365e-08	-4.4173e-08	-6.1834e-09	-5.0357e-08	-7.0441e-08	4.5141e-08	-2.5299e-08	-1.9416e-07	2.0982e-08	-1.7317e-07	-2.8796e-08	7.0766e-08	4.1971e-08
5.6137e-08	3.3699e-08	8.9836e-08	1.0588e-07	5.4453e-08	1.6033e-07	-4.7558e-08	3.3971e-08	-1.3587e-08	-3.3883e-07	-2.4612e-08	-3.6344e-07	-1.0233e-07	1.0409e-08	-9.192e-08	6.0702e-08	-4.3749e-08	1.6953e-08	-7.6997e-08	5.7974e-08	-1.9023e-08	-1.9429e-07	2.2629e-08	-1.7166e-07	-2.2404e-07	6.1296e-08	-1.6274e-07	-2.9874e-08	2.8783e-08	-1.0906e-09	3.8853e-08	1.1773e-07	1.5658e-07	-7.5325e-08	8.7628e-08	1.2303e-08	-1.4702e-07	1.248e-08	-1.3454e-07	-6.9345e-08	1.3404e-07	6.4694e-08	-1.9927e-07	7.1636e-08	-1.2763e-07	2.6418e-08	5.5535e-08	8.1954e-08	-4.4758e-08	-6.2117e-09	-5.097e-08	-7.1694e-08	4.5856e-08	-2.5837e-08	-1.9725e-07	2.1233e-08	-1.7602e-07	-2.9068e-08	7.1813e-08	4.2745e-08
5.6834e-08	3.4242e-08	9.1076e-08	1.0741e-07	5.5289e-08	1.627e-07	-4.8534e-08	3.4446e-08	-1.4088e-08	-3.4469e-07	-2.5215e-08	-3.699e-07	-1.0376e-07	1.0401e-08	-9.336e-08	6.1643e-08	-4.4599e-08	1.7044e-08	-7.8357e-08	5.9e-08	-1.9357e-08	-1.9724e-07	2.29e-08	-1.7434e-07	-2.2721e-07	6.2335e-08	-1.6487e-07	-2.9924e-08	2.9069e-08	-8.5473e-10	3.9175e-08	1.2037e-07	1.5954e-07	-7.6708e-08	8.9495e-08	1.2787e-08	-1.4975e-07	1.2658e-08	-1.3709e-07	-7.0338e-08	1.362e-07	6.5866e-08	-2.0215e-07	7.2634e-08	-1.2952e-07	2.692e-08	5.6626e-08	8.3545e-08	-4.5331e-08	-6.2367e-09	-5.1567e-08	-7.2941e-08	4.6562e-08	-2.6378e-08	-2.0031e-07	2.1479e-08	-1.7883e-07	-2.9332e-08	7.2848e-08	4.3516e-08
5.7517e-08	3.4778e-08	9.2296e-08	1.0894e-07	5.6115e-08	1.6505e-07	-4.9507e-08	3.4914e-08	-1.4594e-08	-3.505e-07	-2.5821e-08	-3.7633e-07	-1.0517e-07	1.0386e-08	-9.4787e-08	6.2572e-08	-4.545e-08	1.7122e-08	-7.9711e-08	6.0023e-08	-1.9688e-08	-2.0017e-07	2.3165e-08	-1.7701e-07	-2.3033e-07	6.3366e-08	-1.6696e-07	-2.996e-08	2.9345e-08	-6.1544e-10	3.9486e-08	1.2301e-07	1.625e-07	-7.8083e-08	9.1359e-08	1.3276e-08	-1.5246e-07	1.2836e-08	-1.3962e-07	-7.1316e-08	1.3835e-07	6.7037e-08	-2.05e-07	7.362e-08	-1.3138e-07	2.7426e-08	5.7715e-08	8.5141e-08	-4.5891e-08	-6.2583e-09	-5.2149e-08	-7.4182e-08	4.7259e-08	-2.6923e-08	-2.0334e-07	2.1719e-08	-1.8162e-07	-2.9586e-08	7.3869e-08	4.4283e-08
5.8186e-08	3.5308e-08	9.3494e-08	1.1045e-07	5.6929e-08	1.6738e-07	-5.0479e-08	3.5375e-08	-1.5104e-08	-3.5628e-07	-2.643e-08	-3.8271e-07	-1.0657e-07	1.0365e-08	-9.62e-08	6.3491e-08	-4.6304e-08	1.7188e-08	-8.1058e-08	6.1042e-08	-2.0016e-08	-2.0307e-07	2.3422e-08	-1.7965e-07	-2.3341e-07	6.439e-08	-1.6902e-07	-2.9984e-08	2.9611e-08	-3.7291e-10	3.9786e-08	1.2566e-07	1.6545e-07	-7.9451e-08	9.322e-08	1.3769e-08	-1.5516e-07	1.3016e-08	-1.4214e-07	-7.2277e-08	1.4048e-07	6.8205e-08	-2.078e-07	7.4593e-08	-1.3321e-07	2.7939e-08	5.8802e-08	8.6741e-08	-4.6438e-08	-6.2764e-09	-5.2715e-08	-7.5418e-08	4.7947e-08	-2.7471e-08	-2.0634e-07	2.1954e-08	-1.8439e-07	-2.9831e-08	7.4876e-08	4.5046e-08
5.8841e-08	3.583e-08	9.4672e-08	1.1194e-07	5.7733e-08	1.6967e-07	-5.1448e-08	3.5829e-08	-1.5619e-08	-3.6203e-07	-2.7043e-08	-3.8907e-07	-1.0794e-07	1.0338e-08	-9.7599e-08	6.4399e-08	-4.7159e-08	1.7241e-08	-8.2398e-08	6.2059e-08	-2.034e-08	-2.0593e-07	2.3672e-08	-1.8226e-07	-2.3646e-07	6.5406e-08	-1.7105e-07	-2.9995e-08	2.9867e-08	-1.2728e-10	4.0075e-08	1.2831e-07	1.6839e-07	-8.0811e-08	9.5078e-08	1.4267e-08	-1.5784e-07	1.3196e-08	-1.4464e-07	-7.3223e-08	1.4259e-07	6.9371e-08	-2.1057e-07	7.5553e-08	-1.3502e-07	2.8457e-08	5.9888e-08	8.8345e-08	-4.6974e-08	-6.2911e-09	-5.3265e-08	-7.6648e-08	4.8626e-08	-2.8022e-08	-2.0931e-07	2.2183e-08	-1.8712e-07	-3.0066e-08	7.5871e-08	4.5805e-08
5.9482e-08	3.6346e-08	9.5828e-08	1.1341e-07	5.8526e-08	1.7194e-07	-5.2415e-08	3.6277e-08	-1.6138e-08	-3.6773e-07	-2.7659e-08	-3.9539e-07	-1.0929e-07	1.0305e-08	-9.8985e-08	6.5296e-08	-4.8016e-08	1.7281e-08	-8.3731e-08	6.3071e-08	-2.066e-08	-2.0877e-07	2.3914e-08	-1.8486e-07	-2.3946e-07	6.6415e-08	-1.7304e-07	-2.9993e-08	3.0114e-08	1.2128e-10	4.0354e-08	1.3097e-07	1.7133e-07	-8.2164e-08	9.6934e-08	1.477e-08	-1.605e-07	1.3378e-08	-1.4713e-07	-7.4152e-08	1.4469e-07	7.0536e-08	-2.133e-07	7.6501e-08	-1.368e-07	2.8981e-08	6.0972e-08	8.9953e-08	-4.7496e-08	-6.3023e-09	-5.3799e-08	-7.7872e-08	4.9296e-08	-2.8577e-08	-2.1224e-07	2.2407e-08	-1.8984e-07	-3.0293e-08	7.6852e-08	4.656e-08
6.0108e-08	3.6854e-08	9.6962e-08	1.1487e-07	5.9307e-08	1.7418e-07	-5.3379e-08	3.6718e-08	-1.6662e-08	-3.7339e-07	-2.8279e-08	-4.0167e-07	-1.1062e-07	1.0265e-08	-1.0036e-07	6.6182e-08	-4.8875e-08	1.7307e-08	-8.5057e-08	6.4081e-08	-2.0977e-08	-2.1158e-07	2.4149e-08	-1.8743e-07	-2.4242e-07	6.7416e-08	-1.75e-07	-2.9978e-08	3.0351e-08	3.726e-10	4.0622e-08	1.3364e-07	1.7426e-07	-8.3509e-08	9.8786e-08	1.5277e-08	-1.6315e-07	1.3561e-08	-1.4959e-07	-7.5065e-08	1.4677e-07	7.17e-08	-2.1599e-07	7.7436e-08	-1.3855e-07	2.9512e-08	6.2054e-08	9.1566e-08	-4.8006e-08	-6.31e-09	-5.4316e-08	-7.9091e-08	4.9956e-08	-2.9135e-08	-2.1515e-07	2.2625e-08	-1.9252e-07	-3.051e-08	7.7821e-08	4.7311e-08
6.072e-08	3.7355e-08	9.8075e-08	1.1632e-07	6.0077e-08	1.764e-07	-5.4341e-08	3.7152e-08	-1.7189e-08	-3.7902e-07	-2.8902e-08	-4.0792e-07	-1.1193e-07	1.0219e-08	-1.0172e-07	6.7056e-08	-4.9736e-08	1.732e-08	-8.6376e-08	6.5087e-08	-2.1289e-08	-2.1436e-07	2.4376e-08	-1.8999e-07	-2.4533e-07	6.841e-08	-1.7692e-07	-2.9951e-08	3.0577e-08	6.2653e-10	4.0879e-08	1.3631e-07	1.7719e-07	-8.4846e-08	1.0063e-07	1.5788e-08	-1.6579e-07	1.3745e-08	-1.5204e-07	-7.5961e-08	1.4882e-07	7.2862e-08	-2.1863e-07	7.8359e-08	-1.4028e-07	3.0049e-08	6.3135e-08	9.3184e-08	-4.8503e-08	-6.3142e-09	-5.4817e-08	-8.0303e-08	5.0606e-08	-2.9697e-08	-2.1802e-07	2.2838e-08	-1.9518e-07	-3.0717e-08	7.8775e-08	4.8058e-08
6.1318e-08	3.7848e-08	9.9166e-08	1.1775e-07	6.0836e-08	1.7858e-07	-5.53e-08	3.7579e-08	-1.7721e-08	-3.846e-07	-2.9528e-08	-4.1413e-07	-1.1323e-07	1.0166e-08	-1.0306e-07	6.7919e-08	-5.06e-08	1.732e-08	-8.7688e-08	6.609e-08	-2.1598e-08	-2.1711e-07	2.4596e-08	-1.9252e-07	-2.4821e-07	6.9396e-08	-1.7882e-07	-2.9911e-08	3.0794e-08	8.8292e-10	4.1125e-08	1.3898e-07	1.8011e-07	-8.6175e-08	1.0248e-07	1.6303e-08	-1.684e-07	1.3931e-08	-1.5447e-07	-7.684e-08	1.5086e-07	7.4024e-08	-2.2124e-07	7.9269e-08	-1.4197e-07	3.0594e-08	6.4213e-08	9.4807e-08	-4.8987e-08	-6.3148e-09	-5.5302e-08	-8.151e-08	5.1247e-08	-3.0263e-08	-2.2086e-07	2.3046e-08	-1.9781e-07	-3.0916e-08	7.9717e-08	4.8801e-08
6.1901e-08	3.8334e-08	1.0023e-07	1.1916e-07	6.1583e-08	1.8074e-07	-5.6256e-08	3.7999e-08	-1.8256e-08	-3.9015e-07	-3.0159e-08	-4.203e-07	-1.145e-07	1.0107e-08	-1.0439e-07	6.8771e-08	-5.1465e-08	1.7305e-08	-8.8992e-08	6.709e-08	-2.1902e-08	-2.1983e-07	2.4809e-08	-1.9502e-07	-2.5105e-07	7.0374e-08	-1.8067e-07	-2.986e-08	3.1001e-08	1.1416e-09	4.1362e-08	1.4166e-07	1.8302e-07	-8.7496e-08	1.0432e-07	1.6822e-08	-1.71e-07	1.4119e-08	-1.5688e-07	-7.7702e-08	1.5289e-07	7.5184e-08	-2.2381e-07	8.0166e-08	-1.4364e-07	3.1145e-08	6.529e-08	9.6435e-08	-4.9458e-08	-6.3119e-09	-5.577e-08	-8.2711e-08	5.1879e-08	-3.0832e-08	-2.2367e-07	2.3248e-08	-2.0042e-07	-3.1105e-08	8.0645e-08	4.954e-08
6.247e-08	3.8812e-08	1.0128e-07	1.2056e-07	6.2318e-08	1.8288e-07	-5.7208e-08	3.8413e-08	-1.8795e-08	-3.9565e-07	-3.0793e-08	-4.2644e-07	-1.1575e-07	1.0042e-08	-1.0571e-07	6.961e-08	-5.2334e-08	1.7277e-08	-9.029e-08	6.8087e-08	-2.2203e-08	-2.2253e-07	2.5014e-08	-1.9751e-07	-2.5384e-07	7.1344e-08	-1.825e-07	-2.9796e-08	3.1198e-08	1.4024e-09	4.1588e-08	1.4435e-07	1.8593e-07	-8.8809e-08	1.0615e-07	1.7345e-08	-1.7358e-07	1.4308e-08	-1.5928e-07	-7.8547e-08	1.5489e-07	7.6343e-08	-2.2634e-07	8.1051e-08	-1.4529e-07	3.1704e-08	6.6365e-08	9.8069e-08	-4.9916e-08	-6.3055e-09	-5.6222e-08	-8.3906e-08	5.25e-08	-3.1405e-08	-2.2644e-07	2.3445e-08	-2.0299e-07	-3.1284e-08	8.156e-08	5.0275e-08
6.3023e-08	3.9282e-08	1.0231e-07	1.2194e-07	6.3041e-08	1.8498e-07	-5.8158e-08	3.8819e-08	-1.9338e-08	-4.0111e-07	-3.143e-08	-4.3254e-07	-1.1698e-07	9.9707e-09	-1.0701e-07	7.0438e-08	-5.3204e-08	1.7234e-08	-9.158e-08	6.9081e-08	-2.2499e-08	-2.2519e-07	2.5211e-08	-1.9998e-07	-2.5659e-07	7.2306e-08	-1.8429e-07	-2.972e-08	3.1385e-08	1.6652e-09	4.1804e-08	1.4703e-07	1.8884e-07	-9.0113e-08	1.0798e-07	1.7872e-08	-1.7615e-07	1.4499e-08	-1.6165e-07	-7.9374e-08	1.5688e-07	7.7502e-08	-2.2882e-07	8.1924e-08	-1.469e-07	3.227e-08	6.7438e-08	9.9709e-08	-5.0361e-08	-6.2954e-09	-5.6656e-08	-8.5094e-08	5.3112e-08	-3.1982e-08	-2.2918e-07	2.3636e-08	-2.0554e-07	-3.1455e-08	8.2461e-08	5.1006e-08
6.3563e-08	3.9745e-08	1.0331e-07	1.2331e-07	6.3752e-08	1.8706e-07	-5.9104e-08	3.9219e-08	-1.9885e-08	-4.0653e-07	-3.2072e-08	-4.3861e-07	-1.1819e-07	9.8931e-09	-1.083e-07	7.1254e-08	-5.4077e-08	1.7177e-08	-9.2862e-08	7.0071e-08	-2.2791e-08	-2.2782e-07	2.54e-08	-2.0242e-07	-2.593e-07	7.326e-08	-1.8604e-07	-2.9632e-08	3.1561e-08	1.9298e-09	4.2009e-08	1.4973e-07	1.9174e-07	-9.1408e-08	1.0981e-07	1.8403e-08	-1.7869e-07	1.4692e-08	-1.64e-07	-8.0183e-08	1.5884e-07	7.866e-08	-2.3127e-07	8.2784e-08	-1.4848e-07	3.2845e-08	6.851e-08	1.0135e-07	-5.0792e-08	-6.2817e-09	-5.7074e-08	-8.6276e-08	5.3714e-08	-3.2562e-08	-2.3189e-07	2.3822e-08	-2.0807e-07	-3.1616e-08	8.3349e-08	5.1733e-08
6.4087e-08	4.0199e-08	1.0429e-07	1.2466e-07	6.445e-08	1.8911e-07	-6.0046e-08	3.9612e-08	-2.0434e-08	-4.1191e-07	-3.2717e-08	-4.4463e-07	-1.1938e-07	9.8093e-09	-1.0957e-07	7.2058e-08	-5.4953e-08	1.7105e-08	-9.4137e-08	7.1059e-08	-2.3078e-08	-2.3042e-07	2.5581e-08	-2.0484e-07	-2.6197e-07	7.4206e-08	-1.8776e-07	-2.9532e-08	3.1728e-08	2.1961e-09	4.2205e-08	1.5243e-07	1.9463e-07	-9.2695e-08	1.1163e-07	1.8937e-08	-1.8122e-07	1.4888e-08	-1.6633e-07	-8.0974e-08	1.6079e-07	7.9818e-08	-2.3367e-07	8.3632e-08	-1.5004e-07	3.3427e-08	6.9579e-08	1.0301e-07	-5.121e-08	-6.2644e-09	-5.7474e-08	-8.7452e-08	5.4306e-08	-3.3147e-08	-2.3456e-07	2.4002e-08	-2.1056e-07	-3.1768e-08	8.4223e-08	5.2455e-08
6.4597e-08	4.0645e-08	1.0524e-07	1.2599e-07	6.5136e-08	1.9113e-07	-6.0985e-08	3.9998e-08	-2.0987e-08	-4.1725e-07	-3.3366e-08	-4.5062e-07	-1.2055e-07	9.7193e-09	-1.1083e-07	7.285e-08	-5.5832e-08	1.7018e-08	-9.5405e-08	7.2044e-08	-2.3361e-08	-2.33e-07	2.5755e-08	-2.0724e-07	-2.646e-07	7.5144e-08	-1.8945e-07	-2.9421e-08	3.1884e-08	2.4639e-09	4.239e-08	1.5513e-07	1.9752e-07	-9.3973e-08	1.1345e-07	1.9475e-08	-1.8373e-07	1.5086e-08	-1.6865e-07	-8.1747e-08	1.6272e-07	8.0976e-08	-2.3603e-07	8.4467e-08	-1.5157e-07	3.4018e-08	7.0646e-08	1.0466e-07	-5.1614e-08	-6.2434e-09	-5.7857e-08	-8.8622e-08	5.4887e-08	-3.3735e-08	-2.3721e-07	2.4177e-08	-2.1303e-07	-3.191e-08	8.5084e-08	5.3174e-08
6.5092e-08	4.1083e-08	1.0618e-07	1.2731e-07	6.581e-08	1.9312e-07	-6.1921e-08	4.0377e-08	-2.1543e-08	-4.2255e-07	-3.4019e-08	-4.5657e-07	-1.217e-07	9.6231e-09	-1.1208e-07	7.3629e-08	-5.6713e-08	1.6916e-08	-9.6665e-08	7.3026e-08	-2.3639e-08	-2.3554e-07	2.592e-08	-2.0962e-07	-2.6718e-07	7.6073e-08	-1.9111e-07	-2.9298e-08	3.2031e-08	2.7331e-09	4.2566e-08	1.5783e-07	2.004e-07	-9.5241e-08	1.1526e-07	2.0016e-08	-1.8622e-07	1.5286e-08	-1.7094e-07	-8.2501e-08	1.6463e-07	8.2133e-08	-2.3835e-07	8.529e-08	-1.5306e-07	3.4617e-08	7.1712e-08	1.0633e-07	-5.2004e-08	-6.2187e-09	-5.8223e-08	-8.9785e-08	5.5458e-08	-3.4327e-08	-2.3981e-07	2.4346e-08	-2.1547e-07	-3.2044e-08	8.5932e-08	5.3888e-08
6.5572e-08	4.1512e-08	1.0708e-07	1.2861e-07	6.647e-08	1.9508e-07	-6.2852e-08	4.0749e-08	-2.2103e-08	-4.278e-07	-3.4677e-08	-4.6248e-07	-1.2283e-07	9.5208e-09	-1.1331e-07	7.4396e-08	-5.7597e-08	1.6799e-08	-9.7917e-08	7.4004e-08	-2.3913e-08	-2.3806e-07	2.6078e-08	-2.1198e-07	-2.6972e-07	7.6995e-08	-1.9273e-07	-2.9163e-08	3.2167e-08	3.0034e-09	4.2732e-08	1.6054e-07	2.0327e-07	-9.65e-08	1.1706e-07	2.056e-08	-1.8869e-07	1.5489e-08	-1.732e-07	-8.3237e-08	1.6653e-07	8.3291e-08	-2.4063e-07	8.6101e-08	-1.5453e-07	3.5225e-08	7.2775e-08	1.08e-07	-5.2381e-08	-6.1904e-09	-5.8571e-08	-9.0942e-08	5.6019e-08	-3.4923e-08	-2.4239e-07	2.451e-08	-2.1788e-07	-3.2168e-08	8.6766e-08	5.4598e-08
6.6038e-08	4.1933e-08	1.0797e-07	1.299e-07	6.7118e-08	1.9702e-07	-6.3779e-08	4.1115e-08	-2.2665e-08	-4.3302e-07	-3.5338e-08	-4.6835e-07	-1.2394e-07	9.4123e-09	-1.1453e-07	7.515e-08	-5.8484e-08	1.6666e-08	-9.9162e-08	7.498e-08	-2.4182e-08	-2.4054e-07	2.6227e-08	-2.1432e-07	-2.7222e-07	7.7908e-08	-1.9432e-07	-2.9018e-08	3.2292e-08	3.2749e-09	4.2888e-08	1.6325e-07	2.0614e-07	-9.775e-08	1.1886e-07	2.1108e-08	-1.9114e-07	1.5694e-08	-1.7545e-07	-8.3954e-08	1.684e-07	8.4449e-08	-2.4287e-07	8.69e-08	-1.5597e-07	3.5842e-08	7.3836e-08	1.0968e-07	-5.2743e-08	-6.1583e-09	-5.8902e-08	-9.2092e-08	5.657e-08	-3.5523e-08	-2.4493e-07	2.4669e-08	-2.2026e-07	-3.2282e-08	8.7587e-08	5.5304e-08
6.6488e-08	4.2345e-08	1.0883e-07	1.3117e-07	6.7753e-08	1.9892e-07	-6.4703e-08	4.1473e-08	-2.323e-08	-4.3818e-07	-3.6003e-08	-4.7419e-07	-1.2503e-07	9.2977e-09	-1.1573e-07	7.5891e-08	-5.9374e-08	1.6517e-08	-1.004e-07	7.5954e-08	-2.4446e-08	-2.43e-07	2.6369e-08	-2.1663e-07	-2.7468e-07	7.8812e-08	-1.9587e-07	-2.8861e-08	3.2408e-08	3.5473e-09	4.3035e-08	1.6597e-07	2.0901e-07	-9.8991e-08	1.2065e-07	2.1659e-08	-1.9357e-07	1.5902e-08	-1.7767e-07	-8.4651e-08	1.7026e-07	8.5608e-08	-2.4506e-07	8.7687e-08	-1.5737e-07	3.6468e-08	7.4895e-08	1.1136e-07	-5.3092e-08	-6.1226e-09	-5.9215e-08	-9.3236e-08	5.711e-08	-3.6126e-08	-2.4743e-07	2.4822e-08	-2.2261e-07	-3.2388e-08	8.8394e-08	5.6006e-08
6.6923e-08	4.2749e-08	1.0967e-07	1.3243e-07	6.8374e-08	2.008e-07	-6.5621e-08	4.1824e-08	-2.3797e-08	-4.4331e-07	-3.6672e-08	-4.7998e-07	-1.261e-07	9.177e-09	-1.1692e-07	7.662e-08	-6.0267e-08	1.6353e-08	-1.0163e-07	7.6924e-08	-2.4705e-08	-2.4543e-07	2.6502e-08	-2.1893e-07	-2.771e-07	7.9708e-08	-1.9739e-07	-2.8693e-08	3.2513e-08	3.8204e-09	4.3171e-08	1.6869e-07	2.1186e-07	-1.0022e-07	1.2243e-07	2.2213e-08	-1.9598e-07	1.6113e-08	-1.7987e-07	-8.5329e-08	1.721e-07	8.6767e-08	-2.4721e-07	8.8461e-08	-1.5875e-07	3.7104e-08	7.5953e-08	1.1306e-07	-5.3427e-08	-6.083e-09	-5.951e-08	-9.4373e-08	5.7639e-08	-3.6734e-08	-2.499e-07	2.4969e-08	-2.2493e-07	-3.2484e-08	8.9188e-08	5.6704e-08
6.7343e-08	4.3143e-08	1.1049e-07	1.3367e-07	6.8982e-08	2.0265e-07	-6.6536e-08	4.2169e-08	-2.4367e-08	-4.4839e-07	-3.7346e-08	-4.8574e-07	-1.2715e-07	9.0503e-09	-1.181e-07	7.7336e-08	-6.1164e-08	1.6172e-08	-1.0285e-07	7.7891e-08	-2.4959e-08	-2.4783e-07	2.6627e-08	-2.212e-07	-2.7947e-07	8.0596e-08	-1.9888e-07	-2.8514e-08	3.2608e-08	4.0942e-09	4.3299e-08	1.7142e-07	2.1471e-07	-1.0144e-07	1.2421e-07	2.2769e-08	-1.9837e-07	1.6327e-08	-1.8204e-07	-8.5988e-08	1.7391e-07	8.7927e-08	-2.4931e-07	8.9223e-08	-1.6009e-07	3.7749e-08	7.7008e-08	1.1476e-07	-5.3747e-08	-6.0398e-09	-5.9787e-08	-9.5503e-08	5.8158e-08	-3.7345e-08	-2.5234e-07	2.5111e-08	-2.2723e-07	-3.2571e-08	8.9968e-08	5.7397e-08
6.7748e-08	4.3529e-08	1.1128e-07	1.3489e-07	6.9577e-08	2.0447e-07	-6.7446e-08	4.2506e-08	-2.494e-08	-4.5343e-07	-3.8024e-08	-4.9146e-07	-1.2817e-07	8.9175e-09	-1.1926e-07	7.8039e-08	-6.2064e-08	1.5975e-08	-1.0406e-07	7.8856e-08	-2.5208e-08	-2.5019e-07	2.6743e-08	-2.2345e-07	-2.8181e-07	8.1475e-08	-2.0033e-07	-2.8324e-08	3.2692e-08	4.3684e-09	4.3417e-08	1.7414e-07	2.1756e-07	-1.0265e-07	1.2598e-07	2.3329e-08	-2.0074e-07	1.6545e-08	-1.842e-07	-8.6627e-08	1.7571e-07	8.9088e-08	-2.5138e-07	8.9974e-08	-1.614e-07	3.8405e-08	7.806e-08	1.1647e-07	-5.4053e-08	-5.9927e-09	-6.0046e-08	-9.6626e-08	5.8666e-08	-3.796e-08	-2.5474e-07	2.5248e-08	-2.2949e-07	-3.2648e-08	9.0734e-08	5.8086e-08
6.8138e-08	4.3905e-08	1.1204e-07	1.361e-07	7.0158e-08	2.0626e-07	-6.8351e-08	4.2837e-08	-2.5514e-08	-4.5843e-07	-3.8706e-08	-4.9713e-07	-1.2918e-07	8.7787e-09	-1.204e-07	7.8728e-08	-6.2967e-08	1.5762e-08	-1.0527e-07	7.9819e-08	-2.5452e-08	-2.5253e-07	2.6851e-08	-2.2568e-07	-2.841e-07	8.2345e-08	-2.0175e-07	-2.8124e-08	3.2767e-08	4.643e-09	4.3525e-08	1.7687e-07	2.204e-07	-1.0385e-07	1.2774e-07	2.3891e-08	-2.0309e-07	1.6765e-08	-1.8632e-07	-8.7245e-08	1.775e-07	9.025e-08	-2.534e-07	9.0712e-08	-1.6268e-07	3.907e-08	7.9111e-08	1.1818e-07	-5.4344e-08	-5.9419e-09	-6.0286e-08	-9.7743e-08	5.9163e-08	-3.8579e-08	-2.5711e-07	2.5379e-08	-2.3173e-07	-3.2717e-08	9.1487e-08	5.8771e-08
6.8513e-08	4.4272e-08	1.1279e-07	1.3729e-07	7.0725e-08	2.0802e-07	-6.9252e-08	4.3161e-08	-2.6091e-08	-4.6338e-07	-3.9393e-08	-5.0277e-07	-1.3017e-07	8.6339e-09	-1.2153e-07	7.9405e-08	-6.3873e-08	1.5531e-08	-1.0647e-07	8.0778e-08	-2.569e-08	-2.5484e-07	2.6951e-08	-2.2789e-07	-2.8634e-07	8.3206e-08	-2.0314e-07	-2.7913e-08	3.283e-08	4.9177e-09	4.3625e-08	1.796e-07	2.2323e-07	-1.0504e-07	1.295e-07	2.4456e-08	-2.0541e-07	1.6989e-08	-1.8842e-07	-8.7844e-08	1.7926e-07	9.1414e-08	-2.5537e-07	9.1438e-08	-1.6393e-07	3.9746e-08	8.0159e-08	1.1991e-07	-5.4621e-08	-5.8872e-09	-6.0509e-08	-9.8852e-08	5.9649e-08	-3.9202e-08	-2.5944e-07	2.5504e-08	-2.3394e-07	-3.2776e-08	9.2227e-08	5.9451e-08
6.8872e-08	4.463e-08	1.135e-07	1.3847e-07	7.1278e-08	2.0975e-07	-7.0147e-08	4.3477e-08	-2.667e-08	-4.6829e-07	-4.0084e-08	-5.0837e-07	-1.3113e-07	8.4831e-09	-1.2265e-07	8.0067e-08	-6.4783e-08	1.5284e-08	-1.0766e-07	8.1735e-08	-2.5923e-08	-2.5712e-07	2.7043e-08	-2.3008e-07	-2.8855e-07	8.4059e-08	-2.0449e-07	-2.7691e-08	3.2884e-08	5.1926e-09	4.3715e-08	1.8234e-07	2.2606e-07	-1.0622e-07	1.3125e-07	2.5023e-08	-2.0771e-07	1.7217e-08	-1.905e-07	-8.8422e-08	1.81e-07	9.2579e-08	-2.573e-07	9.2153e-08	-1.6515e-07	4.0433e-08	8.1206e-08	1.2164e-07	-5.4884e-08	-5.8287e-09	-6.0712e-08	-9.9954e-08	6.0125e-08	-3.9829e-08	-2.6174e-07	2.5624e-08	-2.3611e-07	-3.2826e-08	9.2953e-08	6.0128e-08
6.9217e-08	4.4979e-08	1.142e-07	1.3963e-07	7.1817e-08	2.1145e-07	-7.1038e-08	4.3787e-08	-2.7251e-08	-4.7315e-07	-4.078e-08	-5.1393e-07	-1.3208e-07	8.3264e-09	-1.2375e-07	8.0717e-08	-6.5697e-08	1.502e-08	-1.0884e-07	8.269e-08	-2.6151e-08	-2.5937e-07	2.7126e-08	-2.3224e-07	-2.9071e-07	8.4903e-08	-2.0581e-07	-2.7459e-08	3.2926e-08	5.4673e-09	4.3796e-08	1.8508e-07	2.2887e-07	-1.0739e-07	1.3299e-07	2.5593e-08	-2.0999e-07	1.7448e-08	-1.9255e-07	-8.8979e-08	1.8272e-07	9.3746e-08	-2.5919e-07	9.2855e-08	-1.6633e-07	4.113e-08	8.225e-08	1.2338e-07	-5.5131e-08	-5.7664e-09	-6.0898e-08	-1.0105e-07	6.0589e-08	-4.046e-08	-2.64e-07	2.5739e-08	-2.3826e-07	-3.2866e-08	9.3666e-08	6.08e-08
6.9546e-08	4.5318e-08	1.1486e-07	1.4078e-07	7.2342e-08	2.1312e-07	-7.1923e-08	4.409e-08	-2.7833e-08	-4.7797e-07	-4.148e-08	-5.1945e-07	-1.33e-07	8.1637e-09	-1.2484e-07	8.1352e-08	-6.6614e-08	1.4739e-08	-1.1001e-07	8.3641e-08	-2.6373e-08	-2.6159e-07	2.72e-08	-2.3439e-07	-2.9283e-07	8.5738e-08	-2.071e-07	-2.7217e-08	3.2959e-08	5.7418e-09	4.3868e-08	1.8782e-07	2.3169e-07	-1.0855e-07	1.3472e-07	2.6165e-08	-2.1225e-07	1.7683e-08	-1.9457e-07	-8.9515e-08	1.8443e-07	9.4914e-08	-2.6103e-07	9.3546e-08	-1.6748e-07	4.1839e-08	8.3291e-08	1.2513e-07	-5.5364e-08	-5.7003e-09	-6.1064e-08	-1.0214e-07	6.1042e-08	-4.1095e-08	-2.6622e-07	2.5848e-08	-2.4037e-07	-3.2898e-08	9.4365e-08	6.1467e-08
6.9859e-08	4.5647e-08	1.1551e-07	1.419e-07	7.2853e-08	2.1476e-07	-7.2803e-08	4.4386e-08	-2.8417e-08	-4.8274e-07	-4.2185e-08	-5.2492e-07	-1.339e-07	7.9952e-09	-1.2591e-07	8.1974e-08	-6.7534e-08	1.444e-08	-1.1118e-07	8.4591e-08	-2.659e-08	-2.6378e-07	2.7266e-08	-2.3651e-07	-2.9491e-07	8.6564e-08	-2.0835e-07	-2.6965e-08	3.2981e-08	6.016e-09	4.3931e-08	1.9056e-07	2.3449e-07	-1.097e-07	1.3644e-07	2.674e-08	-2.1449e-07	1.7922e-08	-1.9656e-07	-9.003e-08	1.8612e-07	9.6085e-08	-2.6283e-07	9.4225e-08	-1.686e-07	4.2558e-08	8.4331e-08	1.2689e-07	-5.5582e-08	-5.6303e-09	-6.1212e-08	-1.0322e-07	6.1483e-08	-4.1733e-08	-2.6841e-07	2.5952e-08	-2.4246e-07	-3.292e-08	9.5051e-08	6.2131e-08
7.0157e-08	4.5966e-08	1.1612e-07	1.4302e-07	7.3349e-08	2.1637e-07	-7.3677e-08	4.4675e-08	-2.9003e-08	-4.8747e-07	-4.2895e-08	-5.3036e-07	-1.3479e-07	7.8208e-09	-1.2696e-07	8.2582e-08	-6.8459e-08	1.4123e-08	-1.1234e-07	8.5538e-08	-2.68e-08	-2.6594e-07	2.7323e-08	-2.3862e-07	-2.9695e-07	8.7381e-08	-2.0957e-07	-2.6702e-08	3.2992e-08	6.2896e-09	4.3985e-08	1.9331e-07	2.3729e-07	-1.1084e-07	1.3815e-07	2.7317e-08	-2.167e-07	1.8165e-08	-1.9853e-07	-9.0523e-08	1.8778e-07	9.7258e-08	-2.6458e-07	9.4892e-08	-1.6969e-07	4.329e-08	8.5368e-08	1.2866e-07	-5.5785e-08	-5.5565e-09	-6.1341e-08	-1.0429e-07	6.1914e-08	-4.2375e-08	-2.7057e-07	2.605e-08	-2.4452e-07	-3.2933e-08	9.5723e-08	6.279e-08
7.044e-08	4.6276e-08	1.1672e-07	1.4412e-07	7.383e-08	2.1795e-07	-7.4546e-08	4.4957e-08	-2.9589e-08	-4.9215e-07	-4.3609e-08	-5.3576e-07	-1.3565e-07	7.6405e-09	-1.2801e-07	8.3176e-08	-6.9387e-08	1.3789e-08	-1.1349e-07	8.6482e-08	-2.7006e-08	-2.6807e-07	2.7372e-08	-2.407e-07	-2.9894e-07	8.819e-08	-2.1075e-07	-2.643e-08	3.2993e-08	6.5627e-09	4.403e-08	1.9606e-07	2.4009e-07	-1.1196e-07	1.3986e-07	2.7895e-08	-2.1888e-07	1.8411e-08	-2.0047e-07	-9.0995e-08	1.8943e-07	9.8434e-08	-2.6629e-07	9.5547e-08	-1.7074e-07	4.4033e-08	8.6403e-08	1.3044e-07	-5.5972e-08	-5.4787e-09	-6.1451e-08	-1.0535e-07	6.2332e-08	-4.3021e-08	-2.7268e-07	2.6142e-08	-2.4654e-07	-3.2936e-08	9.6382e-08	6.3445e-08
7.0707e-08	4.6575e-08	1.1728e-07	1.452e-07	7.4297e-08	2.1949e-07	-7.5409e-08	4.5232e-08	-3.0178e-08	-4.9679e-07	-4.4329e-08	-5.4112e-07	-1.3649e-07	7.4544e-09	-1.2903e-07	8.3756e-08	-7.032e-08	1.3437e-08	-1.1463e-07	8.7425e-08	-2.7205e-08	-2.7018e-07	2.7412e-08	-2.4277e-07	-3.009e-07	8.8988e-08	-2.1191e-07	-2.6148e-08	3.2983e-08	6.8349e-09	4.4066e-08	1.9881e-07	2.4287e-07	-1.1307e-07	1.4155e-07	2.8476e-08	-2.2105e-07	1.8663e-08	-2.0239e-07	-9.1445e-08	1.9106e-07	9.9612e-08	-2.6795e-07	9.6191e-08	-1.7176e-07	4.4787e-08	8.7435e-08	1.3222e-07	-5.6145e-08	-5.3971e-09	-6.1542e-08	-1.0641e-07	6.274e-08	-4.3671e-08	-2.7476e-07	2.623e-08	-2.4853e-07	-3.2931e-08	9.7027e-08	6.4096e-08
7.0959e-08	4.6865e-08	1.1782e-07	1.4626e-07	7.4748e-08	2.2101e-07	-7.6267e-08	4.55e-08	-3.0767e-08	-5.0138e-07	-4.5053e-08	-5.4643e-07	-1.3731e-07	7.2626e-09	-1.3005e-07	8.4322e-08	-7.1256e-08	1.3066e-08	-1.1576e-07	8.8364e-08	-2.7398e-08	-2.7225e-07	2.7443e-08	-2.4481e-07	-3.0281e-07	8.9778e-08	-2.1303e-07	-2.5856e-08	3.2962e-08	7.1063e-09	4.4094e-08	2.0156e-07	2.4565e-07	-1.1418e-07	1.4324e-07	2.9059e-08	-2.2319e-07	1.8918e-08	-2.0427e-07	-9.1874e-08	1.9267e-07	1.0079e-07	-2.6956e-07	9.6823e-08	-1.7274e-07	4.5554e-08	8.8465e-08	1.3402e-07	-5.6302e-08	-5.3116e-09	-6.1614e-08	-1.0746e-07	6.3136e-08	-4.4325e-08	-2.7681e-07	2.6311e-08	-2.505e-07	-3.2916e-08	9.7658e-08	6.4742e-08
7.1195e-08	4.7144e-08	1.1834e-07	1.4731e-07	7.5185e-08	2.225e-07	-7.7118e-08	4.5761e-08	-3.1357e-08	-5.0593e-07	-4.5783e-08	-5.5171e-07	-1.3811e-07	7.065e-09	-1.3105e-07	8.4873e-08	-7.2196e-08	1.2677e-08	-1.1689e-07	8.9302e-08	-2.7585e-08	-2.7429e-07	2.7465e-08	-2.4683e-07	-3.0467e-07	9.0559e-08	-2.1411e-07	-2.5555e-08	3.2931e-08	7.3767e-09	4.4113e-08	2.0431e-07	2.4842e-07	-1.1527e-07	1.4491e-07	2.9643e-08	-2.253e-07	1.9178e-08	-2.0612e-07	-9.2279e-08	1.9426e-07	1.0198e-07	-2.7113e-07	9.7444e-08	-1.7369e-07	4.6334e-08	8.9493e-08	1.3583e-07	-5.6444e-08	-5.2222e-09	-6.1666e-08	-1.085e-07	6.352e-08	-4.4982e-08	-2.7882e-07	2.6387e-08	-2.5243e-07	-3.2892e-08	9.8277e-08	6.5385e-08
7.1415e-08	4.7413e-08	1.1883e-07	1.4835e-07	7.5606e-08	2.2395e-07	-7.7963e-08	4.6015e-08	-3.1948e-08	-5.1043e-07	-4.6517e-08	-5.5694e-07	-1.3889e-07	6.8616e-09	-1.3203e-07	8.541e-08	-7.314e-08	1.227e-08	-1.18e-07	9.0237e-08	-2.7767e-08	-2.7631e-07	2.7478e-08	-2.4883e-07	-3.065e-07	9.133e-08	-2.1517e-07	-2.5244e-08	3.289e-08	7.6459e-09	4.4123e-08	2.0707e-07	2.5119e-07	-1.1635e-07	1.4658e-07	3.023e-08	-2.2739e-07	1.9442e-08	-2.0795e-07	-9.2663e-08	1.9583e-07	1.0316e-07	-2.7265e-07	9.8053e-08	-1.746e-07	4.7125e-08	9.0518e-08	1.3764e-07	-5.657e-08	-5.1289e-09	-6.1699e-08	-1.0954e-07	6.3893e-08	-4.5643e-08	-2.8079e-07	2.6458e-08	-2.5433e-07	-3.2859e-08	9.8882e-08	6.6022e-08
7.162e-08	4.7672e-08	1.1929e-07	1.4936e-07	7.6012e-08	2.2537e-07	-7.8802e-08	4.6263e-08	-3.2539e-08	-5.1488e-07	-4.7257e-08	-5.6214e-07	-1.3965e-07	6.6526e-09	-1.33e-07	8.5932e-08	-7.4089e-08	1.1843e-08	-1.1911e-07	9.117e-08	-2.7942e-08	-2.7829e-07	2.7483e-08	-2.5081e-07	-3.0828e-07	9.2092e-08	-2.1619e-07	-2.4924e-08	3.2838e-08	7.9138e-09	4.4125e-08	2.0982e-07	2.5395e-07	-1.1741e-07	1.4823e-07	3.0817e-08	-2.2946e-07	1.9712e-08	-2.0974e-07	-9.3023e-08	1.9738e-07	1.0435e-07	-2.7413e-07	9.8651e-08	-1.7548e-07	4.793e-08	9.1541e-08	1.3947e-07	-5.668e-08	-5.0317e-09	-6.1712e-08	-1.1056e-07	6.4254e-08	-4.6308e-08	-2.8272e-07	2.6523e-08	-2.562e-07	-3.2817e-08	9.9473e-08	6.6656e-08
7.181e-08	4.792e-08	1.1973e-07	1.5036e-07	7.6402e-08	2.2677e-07	-7.9634e-08	4.6503e-08	-3.3131e-08	-5.1929e-07	-4.8002e-08	-5.6729e-07	-1.4039e-07	6.4378e-09	-1.3395e-07	8.644e-08	-7.5042e-08	1.1398e-08	-1.2021e-07	9.2101e-08	-2.8111e-08	-2.8025e-07	2.7478e-08	-2.5277e-07	-3.1002e-07	9.2844e-08	-2.1717e-07	-2.4594e-08	3.2775e-08	8.1804e-09	4.4119e-08	2.1258e-07	2.567e-07	-1.1847e-07	1.4988e-07	3.1407e-08	-2.3149e-07	1.9985e-08	-2.1151e-07	-9.3361e-08	1.9891e-07	1.0555e-07	-2.7556e-07	9.9237e-08	-1.7632e-07	4.8747e-08	9.2561e-08	1.4131e-07	-5.6775e-08	-4.9305e-09	-6.1706e-08	-1.1158e-07	6.4603e-08	-4.6976e-08	-2.8462e-07	2.6582e-08	-2.5804e-07	-3.2765e-08	1.0005e-07	6.7286e-08
7.1983e-08	4.8158e-08	1.2014e-07	1.5135e-07	7.6777e-08	2.2813e-07	-8.046e-08	4.6737e-08	-3.3723e-08	-5.2365e-07	-4.8753e-08	-5.724e-07	-1.411e-07	6.2175e-09	-1.3489e-07	8.6933e-08	-7.5998e-08	1.0934e-08	-1.213e-07	9.303e-08	-2.8273e-08	-2.8218e-07	2.7465e-08	-2.5471e-07	-3.1172e-07	9.3588e-08	-2.1813e-07	-2.4256e-08	3.2701e-08	8.4454e-09	4.4104e-08	2.1534e-07	2.5944e-07	-1.1951e-07	1.5151e-07	3.1998e-08	-2.3351e-07	2.0264e-08	-2.1324e-07	-9.3675e-08	2.0042e-07	1.0675e-07	-2.7694e-07	9.9812e-08	-1.7713e-07	4.9578e-08	9.3579e-08	1.4316e-07	-5.6854e-08	-4.8255e-09	-6.168e-08	-1.1259e-07	6.494e-08	-4.7647e-08	-2.8648e-07	2.6636e-08	-2.5985e-07	-3.2705e-08	1.0062e-07	6.7911e-08
7.2141e-08	4.8385e-08	1.2053e-07	1.5232e-07	7.7136e-08	2.2946e-07	-8.1279e-08	4.6963e-08	-3.4316e-08	-5.2796e-07	-4.9509e-08	-5.7747e-07	-1.418e-07	5.9915e-09	-1.3581e-07	8.741e-08	-7.696e-08	1.0451e-08	-1.2239e-07	9.3957e-08	-2.8429e-08	-2.8407e-07	2.7442e-08	-2.5663e-07	-3.1337e-07	9.4321e-08	-2.1905e-07	-2.3908e-08	3.2617e-08	8.7087e-09	4.4081e-08	2.181e-07	2.6218e-07	-1.2054e-07	1.5313e-07	3.259e-08	-2.3549e-07	2.0548e-08	-2.1495e-07	-9.3966e-08	2.0192e-07	1.0795e-07	-2.7827e-07	1.0038e-07	-1.779e-07	5.0422e-08	9.4594e-08	1.4502e-07	-5.6917e-08	-4.7165e-09	-6.1634e-08	-1.1359e-07	6.5265e-08	-4.8323e-08	-2.8831e-07	2.6685e-08	-2.6162e-07	-3.2635e-08	1.0117e-07	6.8532e-08
7.2284e-08	4.8601e-08	1.2088e-07	1.5327e-07	7.7479e-08	2.3075e-07	-8.2092e-08	4.7183e-08	-3.4909e-08	-5.3223e-07	-5.027e-08	-5.825e-07	-1.4248e-07	5.7599e-09	-1.3672e-07	8.7873e-08	-7.7925e-08	9.948e-09	-1.2346e-07	9.4881e-08	-2.8579e-08	-2.8594e-07	2.7411e-08	-2.5853e-07	-3.1498e-07	9.5045e-08	-2.1994e-07	-2.3552e-08	3.2522e-08	8.9704e-09	4.4049e-08	2.2086e-07	2.6491e-07	-1.2156e-07	1.5474e-07	3.3184e-08	-2.3745e-07	2.0837e-08	-2.1662e-07	-9.4234e-08	2.0339e-07	1.0916e-07	-2.7956e-07	1.0093e-07	-1.7863e-07	5.128e-08	9.5606e-08	1.4689e-07	-5.6965e-08	-4.6036e-09	-6.1568e-08	-1.1458e-07	6.5579e-08	-4.9001e-08	-2.9009e-07	2.6728e-08	-2.6336e-07	-3.2556e-08	1.0171e-07	6.9149e-08
7.241e-08	4.8806e-08	1.2122e-07	1.5421e-07	7.7806e-08	2.3202e-07	-8.2897e-08	4.7396e-08	-3.5502e-08	-5.3645e-07	-5.1037e-08	-5.8749e-07	-1.4313e-07	5.5228e-09	-1.3761e-07	8.8321e-08	-7.8895e-08	9.4258e-09	-1.2453e-07	9.5804e-08	-2.8722e-08	-2.8778e-07	2.7371e-08	-2.6041e-07	-3.1655e-07	9.576e-08	-2.2079e-07	-2.3186e-08	3.2417e-08	9.2301e-09	4.4009e-08	2.2362e-07	2.6763e-07	-1.2257e-07	1.5635e-07	3.3779e-08	-2.3939e-07	2.1131e-08	-2.1826e-07	-9.4477e-08	2.0484e-07	1.1037e-07	-2.808e-07	1.0147e-07	-1.7933e-07	5.2151e-08	9.6617e-08	1.4877e-07	-5.6996e-08	-4.4867e-09	-6.1482e-08	-1.1556e-07	6.588e-08	-4.9683e-08	-2.9184e-07	2.6766e-08	-2.6507e-07	-3.2468e-08	1.0223e-07	6.9761e-08
7.2521e-08	4.9e-08	1.2152e-07	1.5513e-07	7.8117e-08	2.3325e-07	-8.3696e-08	4.7601e-08	-3.6094e-08	-5.4063e-07	-5.1809e-08	-5.9244e-07	-1.4377e-07	5.2802e-09	-1.3849e-07	8.8753e-08	-7.987e-08	8.8838e-09	-1.2558e-07	9.6724e-08	-2.8859e-08	-2.8959e-07	2.7321e-08	-2.6227e-07	-3.1808e-07	9.6465e-08	-2.2162e-07	-2.2812e-08	3.23e-08	9.4878e-09	4.3962e-08	2.2638e-07	2.7035e-07	-1.2356e-07	1.5793e-07	3.4376e-08	-2.413e-07	2.143e-08	-2.1987e-07	-9.4697e-08	2.0628e-07	1.1158e-07	-2.82e-07	1.02e-07	-1.8e-07	5.3036e-08	9.7624e-08	1.5066e-07	-5.7011e-08	-4.3659e-09	-6.1377e-08	-1.1654e-07	6.6169e-08	-5.0369e-08	-2.9355e-07	2.6798e-08	-2.6675e-07	-3.2371e-08	1.0274e-07	7.037e-08
7.2616e-08	4.9184e-08	1.218e-07	1.5604e-07	7.8411e-08	2.3445e-07	-8.4487e-08	4.78e-08	-3.6686e-08	-5.4476e-07	-5.2587e-08	-5.9734e-07	-1.4438e-07	5.0321e-09	-1.3935e-07	8.9171e-08	-8.0849e-08	8.322e-09	-1.2663e-07	9.7643e-08	-2.8989e-08	-2.9137e-07	2.7262e-08	-2.6411e-07	-3.1957e-07	9.716e-08	-2.2241e-07	-2.243e-08	3.2173e-08	9.7435e-09	4.3906e-08	2.2915e-07	2.7305e-07	-1.2454e-07	1.5951e-07	3.4973e-08	-2.4318e-07	2.1735e-08	-2.2144e-07	-9.4892e-08	2.0769e-07	1.128e-07	-2.8314e-07	1.0252e-07	-1.8062e-07	5.3935e-08	9.8629e-08	1.5256e-07	-5.7009e-08	-4.2412e-09	-6.1251e-08	-1.175e-07	6.6446e-08	-5.1057e-08	-2.9522e-07	2.6824e-08	-2.684e-07	-3.2265e-08	1.0324e-07	7.0974e-08
7.2696e-08	4.9356e-08	1.2205e-07	1.5693e-07	7.8689e-08	2.3562e-07	-8.5271e-08	4.7993e-08	-3.7278e-08	-5.4884e-07	-5.3371e-08	-6.0221e-07	-1.4497e-07	4.7785e-09	-1.402e-07	8.9572e-08	-8.1832e-08	7.7402e-09	-1.2767e-07	9.856e-08	-2.9112e-08	-2.9312e-07	2.7194e-08	-2.6593e-07	-3.2101e-07	9.7846e-08	-2.2317e-07	-2.2039e-08	3.2035e-08	9.9969e-09	4.3842e-08	2.3191e-07	2.7575e-07	-1.2551e-07	1.6108e-07	3.5571e-08	-2.4503e-07	2.2045e-08	-2.2298e-07	-9.5064e-08	2.0909e-07	1.1402e-07	-2.8424e-07	1.0303e-07	-1.8121e-07	5.4849e-08	9.9631e-08	1.5448e-07	-5.6992e-08	-4.1126e-09	-6.1104e-08	-1.1846e-07	6.6711e-08	-5.1749e-08	-2.9686e-07	2.6845e-08	-2.7001e-07	-3.215e-08	1.0372e-07	7.1574e-08
7.2759e-08	4.9517e-08	1.2228e-07	1.578e-07	7.8951e-08	2.3675e-07	-8.6047e-08	4.8178e-08	-3.7869e-08	-5.5287e-07	-5.4161e-08	-6.0703e-07	-1.4555e-07	4.5194e-09	-1.4103e-07	8.9958e-08	-8.282e-08	7.1382e-09	-1.287e-07	9.9475e-08	-2.9229e-08	-2.9484e-07	2.7117e-08	-2.6772e-07	-3.2241e-07	9.8521e-08	-2.2389e-07	-2.1639e-08	3.1887e-08	1.0248e-08	4.377e-08	2.3468e-07	2.7845e-07	-1.2646e-07	1.6263e-07	3.6171e-08	-2.4685e-07	2.236e-08	-2.2449e-07	-9.521e-08	2.1046e-07	1.1525e-07	-2.8529e-07	1.0352e-07	-1.8176e-07	5.5777e-08	1.0063e-07	1.5641e-07	-5.6958e-08	-3.98e-09	-6.0938e-08	-1.1941e-07	6.6964e-08	-5.2444e-08	-2.9846e-07	2.686e-08	-2.716e-07	-3.2025e-08	1.042e-07	7.217e-08
7.2807e-08	4.9666e-08	1.2247e-07	1.5866e-07	7.9196e-08	2.3785e-07	-8.6816e-08	4.8356e-08	-3.846e-08	-5.5686e-07	-5.4957e-08	-6.1181e-07	-1.461e-07	4.255e-09	-1.4184e-07	9.0329e-08	-8.3813e-08	6.516e-09	-1.2973e-07	1.0039e-07	-2.9338e-08	-2.9653e-07	2.7031e-08	-2.695e-07	-3.2377e-07	9.9187e-08	-2.2458e-07	-2.1231e-08	3.1728e-08	1.0497e-08	4.369e-08	2.3744e-07	2.8113e-07	-1.274e-07	1.6417e-07	3.6771e-08	-2.4865e-07	2.2682e-08	-2.2597e-07	-9.5332e-08	2.1182e-07	1.1649e-07	-2.8629e-07	1.0401e-07	-1.8228e-07	5.672e-08	1.0163e-07	1.5835e-07	-5.6907e-08	-3.8435e-09	-6.0751e-08	-1.2035e-07	6.7204e-08	-5.3142e-08	-3.0002e-07	2.687e-08	-2.7315e-07	-3.1892e-08	1.0465e-07	7.2762e-08
7.2839e-08	4.9804e-08	1.2264e-07	1.595e-07	7.9424e-08	2.3892e-07	-8.7577e-08	4.8528e-08	-3.9049e-08	-5.608e-07	-5.5758e-08	-6.1655e-07	-1.4663e-07	3.9852e-09	-1.4265e-07	9.0684e-08	-8.481e-08	5.8733e-09	-1.3074e-07	1.013e-07	-2.9441e-08	-2.982e-07	2.6935e-08	-2.7126e-07	-3.2509e-07	9.9843e-08	-2.2524e-07	-2.0815e-08	3.1558e-08	1.0743e-08	4.3602e-08	2.402e-07	2.8381e-07	-1.2833e-07	1.657e-07	3.7373e-08	-2.5042e-07	2.3009e-08	-2.2741e-07	-9.5428e-08	2.1316e-07	1.1773e-07	-2.8724e-07	1.0449e-07	-1.8275e-07	5.7678e-08	1.0262e-07	1.603e-07	-5.684e-08	-3.7031e-09	-6.0543e-08	-1.2128e-07	6.7432e-08	-5.3843e-08	-3.0154e-07	2.6874e-08	-2.7466e-07	-3.1749e-08	1.051e-07	7.335e-08
7.2855e-08	4.9931e-08	1.2279e-07	1.6032e-07	7.9635e-08	2.3996e-07	-8.833e-08	4.8692e-08	-3.9638e-08	-5.6469e-07	-5.6566e-08	-6.2125e-07	-1.4714e-07	3.7101e-09	-1.4343e-07	9.1022e-08	-8.5812e-08	5.21e-09	-1.3174e-07	1.0221e-07	-2.9536e-08	-2.9983e-07	2.683e-08	-2.73e-07	-3.2636e-07	1.0049e-07	-2.2587e-07	-2.0391e-08	3.1377e-08	1.0986e-08	4.3506e-08	2.4297e-07	2.8647e-07	-1.2924e-07	1.6721e-07	3.7975e-08	-2.5216e-07	2.3342e-08	-2.2882e-07	-9.55e-08	2.1447e-07	1.1898e-07	-2.8814e-07	1.0495e-07	-1.8319e-07	5.865e-08	1.0361e-07	1.6226e-07	-5.6756e-08	-3.5587e-09	-6.0315e-08	-1.222e-07	6.7648e-08	-5.4547e-08	-3.0302e-07	2.6873e-08	-2.7615e-07	-3.1598e-08	1.0553e-07	7.3933e-08
7.2855e-08	5.0046e-08	1.229e-07	1.6113e-07	7.9829e-08	2.4096e-07	-8.9076e-08	4.885e-08	-4.0225e-08	-5.6853e-07	-5.738e-08	-6.2591e-07	-1.4763e-07	3.4297e-09	-1.442e-07	9.1345e-08	-8.6819e-08	4.526e-09	-1.3274e-07	1.0312e-07	-2.9625e-08	-3.0144e-07	2.6716e-08	-2.7472e-07	-3.2759e-07	1.0113e-07	-2.2647e-07	-1.9959e-08	3.1186e-08	1.1227e-08	4.3403e-08	2.4573e-07	2.8913e-07	-1.3014e-07	1.6872e-07	3.8578e-08	-2.5387e-07	2.368e-08	-2.3019e-07	-9.5546e-08	2.1577e-07	1.2023e-07	-2.8899e-07	1.054e-07	-1.8359e-07	5.9638e-08	1.046e-07	1.6424e-07	-5.6655e-08	-3.4105e-09	-6.0066e-08	-1.2311e-07	6.7851e-08	-5.5254e-08	-3.0446e-07	2.6867e-08	-2.776e-07	-3.1437e-08	1.0595e-07	7.4513e-08
7.2839e-08	5.015e-08	1.2299e-07	1.6192e-07	8.0006e-08	2.4193e-07	-8.9813e-08	4.9001e-08	-4.0812e-08	-5.7233e-07	-5.82e-08	-6.3053e-07	-1.481e-07	3.144e-09	-1.4496e-07	9.1652e-08	-8.7831e-08	3.8212e-09	-1.3373e-07	1.0402e-07	-2.9706e-08	-3.0302e-07	2.6592e-08	-2.7642e-07	-3.2878e-07	1.0175e-07	-2.2703e-07	-1.9519e-08	3.0984e-08	1.1465e-08	4.3292e-08	2.4849e-07	2.9179e-07	-1.3103e-07	1.7021e-07	3.9181e-08	-2.5555e-07	2.4025e-08	-2.3152e-07	-9.5566e-08	2.1705e-07	1.2148e-07	-2.898e-07	1.0585e-07	-1.8395e-07	6.0642e-08	1.0559e-07	1.6623e-07	-5.6538e-08	-3.2583e-09	-5.9796e-08	-1.2401e-07	6.8041e-08	-5.5964e-08	-3.0587e-07	2.6854e-08	-2.7901e-07	-3.1267e-08	1.0636e-07	7.5088e-08
7.2808e-08	5.0241e-08	1.2305e-07	1.627e-07	8.0165e-08	2.4287e-07	-9.0542e-08	4.9145e-08	-4.1396e-08	-5.7608e-07	-5.9026e-08	-6.351e-07	-1.4855e-07	2.8531e-09	-1.457e-07	9.1943e-08	-8.8847e-08	3.0954e-09	-1.3471e-07	1.0493e-07	-2.978e-08	-3.0457e-07	2.6459e-08	-2.7811e-07	-3.2993e-07	1.0237e-07	-2.2756e-07	-1.9071e-08	3.0771e-08	1.1699e-08	4.3173e-08	2.5126e-07	2.9443e-07	-1.319e-07	1.7168e-07	3.9785e-08	-2.572e-07	2.4376e-08	-2.3283e-07	-9.556e-08	2.1831e-07	1.2275e-07	-2.9055e-07	1.0628e-07	-1.8427e-07	6.166e-08	1.0657e-07	1.6823e-07	-5.6403e-08	-3.1023e-09	-5.9506e-08	-1.249e-07	6.822e-08	-5.6676e-08	-3.0723e-07	2.6836e-08	-2.804e-07	-3.1089e-08	1.0675e-07	7.5659e-08
7.2761e-08	5.0321e-08	1.2308e-07	1.6346e-07	8.0308e-08	2.4377e-07	-9.1262e-08	4.9283e-08	-4.1979e-08	-5.7978e-07	-5.9859e-08	-6.3964e-07	-1.4898e-07	2.5569e-09	-1.4643e-07	9.2217e-08	-8.9869e-08	2.3485e-09	-1.3567e-07	1.0583e-07	-2.9847e-08	-3.0608e-07	2.6317e-08	-2.7977e-07	-3.3103e-07	1.0297e-07	-2.2806e-07	-1.8616e-08	3.0547e-08	1.1931e-08	4.3047e-08	2.5402e-07	2.9707e-07	-1.3276e-07	1.7315e-07	4.039e-08	-2.5883e-07	2.4733e-08	-2.3409e-07	-9.5529e-08	2.1955e-07	1.2402e-07	-2.9126e-07	1.067e-07	-1.8456e-07	6.2695e-08	1.0755e-07	1.7025e-07	-5.6252e-08	-2.9423e-09	-5.9194e-08	-1.2578e-07	6.8385e-08	-5.7391e-08	-3.0856e-07	2.6813e-08	-2.8175e-07	-3.0901e-08	1.0713e-07	7.6227e-08
7.2697e-08	5.0389e-08	1.2309e-07	1.642e-07	8.0432e-08	2.4464e-07	-9.1974e-08	4.9413e-08	-4.2561e-08	-5.8343e-07	-6.0698e-08	-6.4413e-07	-1.4939e-07	2.2556e-09	-1.4714e-07	9.2476e-08	-9.0895e-08	1.5804e-09	-1.3664e-07	1.0673e-07	-2.9907e-08	-3.0758e-07	2.6165e-08	-2.8141e-07	-3.3209e-07	1.0357e-07	-2.2852e-07	-1.8153e-08	3.0313e-08	1.216e-08	4.2913e-08	2.5678e-07	2.9969e-07	-1.336e-07	1.7459e-07	4.0995e-08	-2.6042e-07	2.5096e-08	-2.3532e-07	-9.5471e-08	2.2077e-07	1.253e-07	-2.9192e-07	1.0711e-07	-1.848e-07	6.3745e-08	1.0853e-07	1.7227e-07	-5.6083e-08	-2.7785e-09	-5.8862e-08	-1.2665e-07	6.8538e-08	-5.8109e-08	-3.0985e-07	2.6784e-08	-2.8307e-07	-3.0704e-08	1.0749e-07	7.679e-08
7.2618e-08	5.0445e-08	1.2306e-07	1.6493e-07	8.0539e-08	2.4547e-07	-9.2677e-08	4.9537e-08	-4.314e-08	-5.8704e-07	-6.1544e-08	-6.4858e-07	-1.4978e-07	1.9492e-09	-1.4783e-07	9.2717e-08	-9.1926e-08	7.9087e-10	-1.3759e-07	1.0763e-07	-2.9959e-08	-3.0904e-07	2.6004e-08	-2.8303e-07	-3.3311e-07	1.0416e-07	-2.2896e-07	-1.7682e-08	3.0067e-08	1.2385e-08	4.2771e-08	2.5954e-07	3.0231e-07	-1.3443e-07	1.7603e-07	4.1601e-08	-2.6198e-07	2.5466e-08	-2.3652e-07	-9.5387e-08	2.2197e-07	1.2658e-07	-2.9252e-07	1.0751e-07	-1.8501e-07	6.4812e-08	1.095e-07	1.7432e-07	-5.5898e-08	-2.6108e-09	-5.8508e-08	-1.2751e-07	6.8678e-08	-5.8829e-08	-3.111e-07	2.6749e-08	-2.8435e-07	-3.0499e-08	1.0785e-07	7.7349e-08
7.2523e-08	5.049e-08	1.2301e-07	1.6564e-07	8.0629e-08	2.4627e-07	-9.3372e-08	4.9654e-08	-4.3718e-08	-5.906e-07	-6.2397e-08	-6.5299e-07	-1.5015e-07	1.6377e-09	-1.4851e-07	9.2942e-08	-9.2963e-08	-2.0093e-11	-1.3853e-07	1.0853e-07	-3.0003e-08	-3.1047e-07	2.5833e-08	-2.8464e-07	-3.3409e-07	1.0473e-07	-2.2936e-07	-1.7204e-08	2.9811e-08	1.2607e-08	4.2622e-08	2.623e-07	3.0492e-07	-1.3524e-07	1.7745e-07	4.2207e-08	-2.6352e-07	2.5842e-08	-2.3767e-07	-9.5276e-08	2.2315e-07	1.2787e-07	-2.9308e-07	1.079e-07	-1.8518e-07	6.5895e-08	1.1048e-07	1.7637e-07	-5.5694e-08	-2.4393e-09	-5.8134e-08	-1.2836e-07	6.8806e-08	-5.9551e-08	-3.1231e-07	2.6709e-08	-2.856e-07	-3.0284e-08	1.0819e-07	7.7905e-08
7.2413e-08	5.0522e-08	1.2293e-07	1.6634e-07	8.07e-08	2.4704e-07	-9.4058e-08	4.9765e-08	-4.4293e-08	-5.9411e-07	-6.3256e-08	-6.5736e-07	-1.505e-07	1.321e-09	-1.4917e-07	9.3151e-08	-9.4004e-08	-8.5264e-10	-1.3946e-07	1.0942e-07	-3.0041e-08	-3.1188e-07	2.5653e-08	-2.8622e-07	-3.3503e-07	1.053e-07	-2.2973e-07	-1.6719e-08	2.9545e-08	1.2826e-08	4.2466e-08	2.6506e-07	3.0752e-07	-1.3604e-07	1.7886e-07	4.2813e-08	-2.6502e-07	2.6225e-08	-2.3879e-07	-9.5139e-08	2.2431e-07	1.2917e-07	-2.9359e-07	1.0828e-07	-1.853e-07	6.6994e-08	1.1144e-07	1.7844e-07	-5.5474e-08	-2.2639e-09	-5.7738e-08	-1.292e-07	6.8921e-08	-6.0275e-08	-3.1348e-07	2.6664e-08	-2.8682e-07	-3.0061e-08	1.0852e-07	7.8456e-08
7.2286e-08	5.0541e-08	1.2283e-07	1.6702e-07	8.0754e-08	2.4777e-07	-9.4734e-08	4.9868e-08	-4.4866e-08	-5.9757e-07	-6.4121e-08	-6.6169e-07	-1.5082e-07	9.994e-10	-1.4982e-07	9.3343e-08	-9.505e-08	-1.7069e-09	-1.4039e-07	1.1032e-07	-3.007e-08	-3.1325e-07	2.5463e-08	-2.8779e-07	-3.3592e-07	1.0585e-07	-2.3007e-07	-1.6226e-08	2.9267e-08	1.3041e-08	4.2302e-08	2.6781e-07	3.1012e-07	-1.3683e-07	1.8025e-07	4.342e-08	-2.6649e-07	2.6614e-08	-2.3988e-07	-9.4975e-08	2.2545e-07	1.3047e-07	-2.9404e-07	1.0865e-07	-1.8539e-07	6.8109e-08	1.1241e-07	1.8052e-07	-5.5236e-08	-2.0846e-09	-5.7321e-08	-1.3002e-07	6.9023e-08	-6.1002e-08	-3.1461e-07	2.6612e-08	-2.88e-07	-2.9828e-08	1.0883e-07	7.9004e-08
7.2143e-08	5.0549e-08	1.2269e-07	1.6768e-07	8.0789e-08	2.4847e-07	-9.5402e-08	4.9965e-08	-4.5436e-08	-6.0098e-07	-6.4994e-08	-6.6598e-07	-1.5113e-07	6.7274e-10	-1.5046e-07	9.3518e-08	-9.6101e-08	-2.5829e-09	-1.413e-07	1.1121e-07	-3.0092e-08	-3.146e-07	2.5264e-08	-2.8934e-07	-3.3677e-07	1.064e-07	-2.3038e-07	-1.5727e-08	2.8979e-08	1.3253e-08	4.2131e-08	2.7057e-07	3.127e-07	-1.376e-07	1.8163e-07	4.4027e-08	-2.6793e-07	2.701e-08	-2.4092e-07	-9.4783e-08	2.2657e-07	1.3179e-07	-2.9445e-07	1.0901e-07	-1.8544e-07	6.9241e-08	1.1337e-07	1.8261e-07	-5.4981e-08	-1.9016e-09	-5.6883e-08	-1.3084e-07	6.9113e-08	-6.173e-08	-3.157e-07	2.6555e-08	-2.8915e-07	-2.9587e-08	1.0913e-07	7.9547e-08
7.1985e-08	5.0544e-08	1.2253e-07	1.6832e-07	8.0807e-08	2.4913e-07	-9.606e-08	5.0055e-08	-4.6004e-08	-6.0435e-07	-6.5873e-08	-6.7022e-07	-1.5142e-07	3.4112e-10	-1.5108e-07	9.3676e-08	-9.7157e-08	-3.4809e-09	-1.4221e-07	1.121e-07	-3.0107e-08	-3.1592e-07	2.5055e-08	-2.9086e-07	-3.3758e-07	1.0693e-07	-2.3065e-07	-1.522e-08	2.868e-08	1.346e-08	4.1952e-08	2.7332e-07	3.1528e-07	-1.3835e-07	1.8299e-07	4.4634e-08	-2.6934e-07	2.7412e-08	-2.4193e-07	-9.4565e-08	2.2767e-07	1.3311e-07	-2.9481e-07	1.0936e-07	-1.8544e-07	7.039e-08	1.1433e-07	1.8472e-07	-5.4708e-08	-1.7148e-09	-5.6423e-08	-1.3165e-07	6.9189e-08	-6.2461e-08	-3.1676e-07	2.6493e-08	-2.9026e-07	-2.9337e-08	1.0942e-07	8.0087e-08
7.1811e-08	5.0527e-08	1.2234e-07	1.6895e-07	8.0806e-08	2.4976e-07	-9.6709e-08	5.0139e-08	-4.657e-08	-6.0767e-07	-6.6759e-08	-6.7443e-07	-1.5168e-07	4.5622e-12	-1.5168e-07	9.3818e-08	-9.8219e-08	-4.4009e-09	-1.431e-07	1.1299e-07	-3.0113e-08	-3.1721e-07	2.4837e-08	-2.9237e-07	-3.3835e-07	1.0746e-07	-2.309e-07	-1.4706e-08	2.837e-08	1.3664e-08	4.1767e-08	2.7608e-07	3.1784e-07	-1.391e-07	1.8434e-07	4.5242e-08	-2.7072e-07	2.7821e-08	-2.429e-07	-9.4318e-08	2.2875e-07	1.3443e-07	-2.9511e-07	1.097e-07	-1.8541e-07	7.1556e-08	1.1529e-07	1.8685e-07	-5.4418e-08	-1.5242e-09	-5.5942e-08	-1.3245e-07	6.9253e-08	-6.3193e-08	-3.1777e-07	2.6425e-08	-2.9135e-07	-2.9078e-08	1.097e-07	8.0623e-08
7.1621e-08	5.0498e-08	1.2212e-07	1.6956e-07	8.0786e-08	2.5035e-07	-9.7348e-08	5.0216e-08	-4.7132e-08	-6.1094e-07	-6.7653e-08	-6.7859e-07	-1.5193e-07	-3.369e-10	-1.5227e-07	9.3942e-08	-9.9285e-08	-5.3429e-09	-1.4399e-07	1.1388e-07	-3.0112e-08	-3.1847e-07	2.4609e-08	-2.9386e-07	-3.3908e-07	1.0797e-07	-2.3111e-07	-1.4185e-08	2.805e-08	1.3865e-08	4.1574e-08	2.7883e-07	3.204e-07	-1.3982e-07	1.8567e-07	4.5849e-08	-2.7207e-07	2.8237e-08	-2.4383e-07	-9.4045e-08	2.2981e-07	1.3577e-07	-2.9537e-07	1.1003e-07	-1.8533e-07	7.2739e-08	1.1624e-07	1.8898e-07	-5.411e-08	-1.3298e-09	-5.5439e-08	-1.3323e-07	6.9304e-08	-6.3927e-08	-3.1874e-07	2.6351e-08	-2.9239e-07	-2.881e-08	1.0996e-07	8.1155e-08
7.1415e-08	5.0456e-08	1.2187e-07	1.7016e-07	8.0749e-08	2.5091e-07	-9.7977e-08	5.0286e-08	-4.7691e-08	-6.1416e-07	-6.8553e-08	-6.8272e-07	-1.5216e-07	-6.8322e-10	-1.5284e-07	9.4049e-08	-1.0036e-07	-6.3072e-09	-1.4487e-07	1.1477e-07	-3.0103e-08	-3.1971e-07	2.4371e-08	-2.9533e-07	-3.3976e-07	1.0847e-07	-2.3129e-07	-1.3658e-08	2.7719e-08	1.4061e-08	4.1373e-08	2.8157e-07	3.2295e-07	-1.4053e-07	1.8699e-07	4.6457e-08	-2.7338e-07	2.866e-08	-2.4472e-07	-9.3743e-08	2.3086e-07	1.3711e-07	-2.9557e-07	1.1035e-07	-1.8522e-07	7.394e-08	1.1719e-07	1.9113e-07	-5.3784e-08	-1.1317e-09	-5.4915e-08	-1.3401e-07	6.9342e-08	-6.4663e-08	-3.1968e-07	2.6272e-08	-2.9341e-07	-2.8533e-08	1.1022e-07	8.1683e-08
7.1194e-08	5.0401e-08	1.2159e-07	1.7074e-07	8.0692e-08	2.5143e-07	-9.8597e-08	5.0349e-08	-4.8248e-08	-6.1734e-07	-6.9461e-08	-6.868e-07	-1.5236e-07	-1.0344e-09	-1.534e-07	9.4139e-08	-1.0143e-07	-7.2938e-09	-1.4574e-07	1.1565e-07	-3.0086e-08	-3.2091e-07	2.4124e-08	-2.9679e-07	-3.4041e-07	1.0896e-07	-2.3144e-07	-1.3124e-08	2.7377e-08	1.4253e-08	4.1166e-08	2.8432e-07	3.2549e-07	-1.4123e-07	1.8829e-07	4.7064e-08	-2.7467e-07	2.909e-08	-2.4558e-07	-9.3413e-08	2.3188e-07	1.3847e-07	-2.9572e-07	1.1066e-07	-1.8506e-07	7.5157e-08	1.1814e-07	1.933e-07	-5.344e-08	-9.2983e-10	-5.437e-08	-1.3477e-07	6.9367e-08	-6.54e-08	-3.2057e-07	2.6187e-08	-2.9438e-07	-2.8247e-08	1.1045e-07	8.2208e-08
7.0956e-08	5.0334e-08	1.2129e-07	1.713e-07	8.0617e-08	2.5192e-07	-9.9207e-08	5.0406e-08	-4.8801e-08	-6.2047e-07	-7.0376e-08	-6.9084e-07	-1.5255e-07	-1.3903e-09	-1.5394e-07	9.4212e-08	-1.0251e-07	-8.3027e-09	-1.466e-07	1.1654e-07	-3.0061e-08	-3.2209e-07	2.3868e-08	-2.9822e-07	-3.4101e-07	1.0945e-07	-2.3156e-07	-1.2583e-08	2.7025e-08	1.4441e-08	4.0951e-08	2.8706e-07	3.2801e-07	-1.419e-07	1.8958e-07	4.7672e-08	-2.7592e-07	2.9527e-08	-2.4639e-07	-9.3056e-08	2.3288e-07	1.3983e-07	-2.9582e-07	1.1096e-07	-1.8487e-07	7.6393e-08	1.1909e-07	1.9548e-07	-5.3078e-08	-7.2429e-10	-5.3802e-08	-1.3552e-07	6.9379e-08	-6.6139e-08	-3.2142e-07	2.6097e-08	-2.9533e-07	-2.7953e-08	1.1068e-07	8.2728e-08
7.0703e-08	5.0254e-08	1.2096e-07	1.7185e-07	8.0523e-08	2.5237e-07	-9.9807e-08	5.0456e-08	-4.935e-08	-6.2354e-07	-7.1298e-08	-6.9484e-07	-1.5272e-07	-1.751e-09	-1.5447e-07	9.4268e-08	-1.036e-07	-9.3341e-09	-1.4745e-07	1.1742e-07	-3.0028e-08	-3.2324e-07	2.3602e-08	-2.9964e-07	-3.4156e-07	1.0992e-07	-2.3165e-07	-1.2036e-08	2.6661e-08	1.4625e-08	4.073e-08	2.898e-07	3.3053e-07	-1.4257e-07	1.9085e-07	4.828e-08	-2.7714e-07	2.997e-08	-2.4717e-07	-9.267e-08	2.3387e-07	1.412e-07	-2.9588e-07	1.1125e-07	-1.8463e-07	7.7645e-08	1.2003e-07	1.9767e-07	-5.2698e-08	-5.1507e-10	-5.3213e-08	-1.3626e-07	6.9379e-08	-6.6878e-08	-3.2224e-07	2.6e-08	-2.9624e-07	-2.7649e-08	1.1089e-07	8.3245e-08
7.0434e-08	5.0162e-08	1.206e-07	1.7238e-07	8.0411e-08	2.5279e-07	-1.004e-07	5.05e-08	-4.9896e-08	-6.2658e-07	-7.2227e-08	-6.988e-07	-1.5286e-07	-2.1165e-09	-1.5498e-07	9.4306e-08	-1.0469e-07	-1.0388e-08	-1.4829e-07	1.183e-07	-2.9987e-08	-3.2436e-07	2.3326e-08	-3.0103e-07	-3.4208e-07	1.1038e-07	-2.317e-07	-1.1482e-08	2.6287e-08	1.4805e-08	4.0501e-08	2.9254e-07	3.3304e-07	-1.4321e-07	1.921e-07	4.8887e-08	-2.7832e-07	3.0421e-08	-2.479e-07	-9.2255e-08	2.3483e-07	1.4257e-07	-2.9588e-07	1.1153e-07	-1.8435e-07	7.8916e-08	1.2097e-07	1.9988e-07	-5.23e-08	-3.0221e-10	-5.2602e-08	-1.3698e-07	6.9365e-08	-6.7619e-08	-3.2301e-07	2.5899e-08	-2.9711e-07	-2.7337e-08	1.111e-07	8.3759e-08
7.015e-08	5.0057e-08	1.2021e-07	1.7289e-07	8.0279e-08	2.5317e-07	-1.0098e-07	5.0537e-08	-5.0438e-08	-6.2956e-07	-7.3164e-08	-7.0272e-07	-1.5299e-07	-2.4866e-09	-1.5548e-07	9.4326e-08	-1.0579e-07	-1.1465e-08	-1.4912e-07	1.1918e-07	-2.9938e-08	-3.2545e-07	2.304e-08	-3.0241e-07	-3.4256e-07	1.1083e-07	-2.3173e-07	-1.0922e-08	2.5903e-08	1.498e-08	4.0265e-08	2.9528e-07	3.3554e-07	-1.4385e-07	1.9334e-07	4.9495e-08	-2.7948e-07	3.088e-08	-2.486e-07	-9.1812e-08	2.3577e-07	1.4396e-07	-2.9582e-07	1.118e-07	-1.8403e-07	8.0205e-08	1.219e-07	2.0211e-07	-5.1884e-08	-8.5717e-11	-5.197e-08	-1.377e-07	6.9338e-08	-6.8361e-08	-3.2375e-07	2.5791e-08	-2.9795e-07	-2.7017e-08	1.1128e-07	8.4268e-08
6.985e-08	4.9939e-08	1.1979e-07	1.7339e-07	8.0129e-08	2.5352e-07	-1.0154e-07	5.0568e-08	-5.0977e-08	-6.325e-07	-7.4108e-08	-7.0661e-07	-1.531e-07	-2.8614e-09	-1.5596e-07	9.4329e-08	-1.0689e-07	-1.2564e-08	-1.4994e-07	1.2006e-07	-2.9881e-08	-3.2652e-07	2.2745e-08	-3.0377e-07	-3.4299e-07	1.1127e-07	-2.3172e-07	-1.0356e-08	2.5508e-08	1.5152e-08	4.0022e-08	2.9801e-07	3.3803e-07	-1.4446e-07	1.9456e-07	5.0102e-08	-2.806e-07	3.1345e-08	-2.4925e-07	-9.1341e-08	2.367e-07	1.4536e-07	-2.9572e-07	1.1206e-07	-1.8367e-07	8.1511e-08	1.2283e-07	2.0434e-07	-5.145e-08	1.3437e-10	-5.1316e-08	-1.384e-07	6.9299e-08	-6.9104e-08	-3.2444e-07	2.5678e-08	-2.9876e-07	-2.6687e-08	1.1146e-07	8.4774e-08
6.9534e-08	4.9808e-08	1.1934e-07	1.7387e-07	7.9959e-08	2.5383e-07	-1.021e-07	5.0592e-08	-5.1511e-08	-6.3539e-07	-7.506e-08	-7.1045e-07	-1.5318e-07	-3.2408e-09	-1.5642e-07	9.4315e-08	-1.08e-07	-1.3686e-08	-1.5075e-07	1.2094e-07	-2.9815e-08	-3.2756e-07	2.244e-08	-3.0512e-07	-3.4338e-07	1.117e-07	-2.3169e-07	-9.7836e-09	2.5102e-08	1.5318e-08	3.9773e-08	3.0074e-07	3.4051e-07	-1.4506e-07	1.9577e-07	5.0709e-08	-2.8169e-07	3.1817e-08	-2.4987e-07	-9.084e-08	2.376e-07	1.4676e-07	-2.9557e-07	1.1231e-07	-1.8326e-07	8.2836e-08	1.2376e-07	2.066e-07	-5.0998e-08	3.5804e-10	-5.064e-08	-1.3909e-07	6.9246e-08	-6.9847e-08	-3.2509e-07	2.556e-08	-2.9953e-07	-2.6349e-08	1.1163e-07	8.5277e-08
6.9202e-08	4.9664e-08	1.1887e-07	1.7434e-07	7.9771e-08	2.5411e-07	-1.0265e-07	5.0609e-08	-5.2041e-08	-6.3823e-07	-7.6019e-08	-7.1425e-07	-1.5325e-07	-3.6248e-09	-1.5687e-07	9.4282e-08	-1.0911e-07	-1.4831e-08	-1.5156e-07	1.2181e-07	-2.9742e-08	-3.2857e-07	2.2126e-08	-3.0644e-07	-3.4373e-07	1.1212e-07	-2.3162e-07	-9.2049e-09	2.4685e-08	1.548e-08	3.9516e-08	3.0347e-07	3.4299e-07	-1.4564e-07	1.9696e-07	5.1316e-08	-2.8274e-07	3.2297e-08	-2.5045e-07	-9.031e-08	2.3849e-07	1.4818e-07	-2.9536e-07	1.1255e-07	-1.8282e-07	8.4179e-08	1.2469e-07	2.0886e-07	-5.0527e-08	5.8524e-10	-4.9942e-08	-1.3977e-07	6.9181e-08	-7.0591e-08	-3.257e-07	2.5435e-08	-3.0027e-07	-2.6002e-08	1.1178e-07	8.5775e-08
6.8855e-08	4.9508e-08	1.1836e-07	1.7478e-07	7.9563e-08	2.5435e-07	-1.0319e-07	5.062e-08	-5.2567e-08	-6.4102e-07	-7.6987e-08	-7.1801e-07	-1.533e-07	-4.0134e-09	-1.5731e-07	9.4232e-08	-1.1023e-07	-1.5999e-08	-1.5235e-07	1.2269e-07	-2.966e-08	-3.2955e-07	2.1802e-08	-3.0775e-07	-3.4404e-07	1.1252e-07	-2.3152e-07	-8.6202e-09	2.4258e-08	1.5638e-08	3.9252e-08	3.0619e-07	3.4545e-07	-1.4621e-07	1.9813e-07	5.1923e-08	-2.8376e-07	3.2784e-08	-2.5098e-07	-8.9751e-08	2.3936e-07	1.496e-07	-2.9511e-07	1.1278e-07	-1.8233e-07	8.554e-08	1.2561e-07	2.1115e-07	-5.0038e-08	8.1596e-10	-4.9222e-08	-1.4044e-07	6.9102e-08	-7.1335e-08	-3.2628e-07	2.5305e-08	-3.0097e-07	-2.5646e-08	1.1192e-07	8.6271e-08
6.8493e-08	4.9338e-08	1.1783e-07	1.7521e-07	7.9335e-08	2.5455e-07	-1.0371e-07	5.0625e-08	-5.3089e-08	-6.4377e-07	-7.7961e-08	-7.2173e-07	-1.5333e-07	-4.4065e-09	-1.5773e-07	9.4165e-08	-1.1135e-07	-1.7189e-08	-1.5313e-07	1.2356e-07	-2.9569e-08	-3.305e-07	2.1468e-08	-3.0903e-07	-3.4431e-07	1.1292e-07	-2.3139e-07	-8.0295e-09	2.3821e-08	1.5791e-08	3.8982e-08	3.0891e-07	3.4789e-07	-1.4676e-07	1.9929e-07	5.2529e-08	-2.8475e-07	3.3279e-08	-2.5147e-07	-8.9163e-08	2.402e-07	1.5104e-07	-2.948e-07	1.13e-07	-1.818e-07	8.692e-08	1.2653e-07	2.1345e-07	-4.953e-08	1.0502e-09	-4.848e-08	-1.4109e-07	6.901e-08	-7.208e-08	-3.2681e-07	2.5169e-08	-3.0164e-07	-2.5282e-08	1.1204e-07	8.6762e-08
6.8115e-08	4.9155e-08	1.1727e-07	1.7563e-07	7.9089e-08	2.5472e-07	-1.0423e-07	5.0622e-08	-5.3605e-08	-6.4647e-07	-7.8944e-08	-7.2541e-07	-1.5333e-07	-4.804e-09	-1.5814e-07	9.4079e-08	-1.1248e-07	-1.8403e-08	-1.5391e-07	1.2444e-07	-2.9471e-08	-3.3143e-07	2.1125e-08	-3.103e-07	-3.4454e-07	1.133e-07	-2.3124e-07	-7.4329e-09	2.3372e-08	1.594e-08	3.8704e-08	3.1163e-07	3.5033e-07	-1.4729e-07	2.0043e-07	5.3136e-08	-2.8571e-07	3.3781e-08	-2.5193e-07	-8.8546e-08	2.4103e-07	1.5248e-07	-2.9444e-07	1.1321e-07	-1.8123e-07	8.8318e-08	1.2744e-07	2.1576e-07	-4.9004e-08	1.2878e-09	-4.7716e-08	-1.4173e-07	6.8906e-08	-7.2825e-08	-3.273e-07	2.5028e-08	-3.0227e-07	-2.4909e-08	1.1216e-07	8.725e-08
6.7721e-08	4.896e-08	1.1668e-07	1.7603e-07	7.8822e-08	2.5485e-07	-1.0473e-07	5.0614e-08	-5.4118e-08	-6.4912e-07	-7.9935e-08	-7.2905e-07	-1.5332e-07	-5.206e-09	-1.5853e-07	9.3976e-08	-1.1362e-07	-1.964e-08	-1.5467e-07	1.2531e-07	-2.9364e-08	-3.3233e-07	2.0772e-08	-3.1156e-07	-3.4473e-07	1.1368e-07	-2.3105e-07	-6.8304e-09	2.2914e-08	1.6083e-08	3.842e-08	3.1434e-07	3.5276e-07	-1.4781e-07	2.0155e-07	5.3742e-08	-2.8663e-07	3.429e-08	-2.5234e-07	-8.7898e-08	2.4184e-07	1.5394e-07	-2.9403e-07	1.1342e-07	-1.8061e-07	8.9735e-08	1.2835e-07	2.1809e-07	-4.8459e-08	1.5289e-09	-4.693e-08	-1.4236e-07	6.8788e-08	-7.357e-08	-3.2775e-07	2.4881e-08	-3.0287e-07	-2.4527e-08	1.1226e-07	8.7735e-08
6.7312e-08	4.8751e-08	1.1606e-07	1.7641e-07	7.8537e-08	2.5494e-07	-1.0522e-07	5.0599e-08	-5.4625e-08	-6.5172e-07	-8.0933e-08	-7.3266e-07	-1.5329e-07	-5.6125e-09	-1.589e-07	9.3854e-08	-1.1475e-07	-2.0899e-08	-1.5543e-07	1.2618e-07	-2.9248e-08	-3.332e-07	2.0409e-08	-3.1279e-07	-3.4487e-07	1.1404e-07	-2.3083e-07	-6.2222e-09	2.2444e-08	1.6222e-08	3.8129e-08	3.1705e-07	3.5518e-07	-1.4831e-07	2.0266e-07	5.4348e-08	-2.8751e-07	3.4807e-08	-2.5271e-07	-8.7221e-08	2.4262e-07	1.554e-07	-2.9356e-07	1.1361e-07	-1.7995e-07	9.1171e-08	1.2926e-07	2.2043e-07	-4.7896e-08	1.7733e-09	-4.6122e-08	-1.4297e-07	6.8658e-08	-7.4315e-08	-3.2816e-07	2.4728e-08	-3.0343e-07	-2.4137e-08	1.1235e-07	8.8216e-08
6.6887e-08	4.8529e-08	1.1542e-07	1.7677e-07	7.8231e-08	2.55e-07	-1.0571e-07	5.0578e-08	-5.5128e-08	-6.5428e-07	-8.1939e-08	-7.3622e-07	-1.5324e-07	-6.0232e-09	-1.5927e-07	9.3715e-08	-1.159e-07	-2.2182e-08	-1.5617e-07	1.2705e-07	-2.9124e-08	-3.3404e-07	2.0037e-08	-3.1401e-07	-3.4497e-07	1.144e-07	-2.3058e-07	-5.6083e-09	2.1964e-08	1.6356e-08	3.7831e-08	3.1976e-07	3.5759e-07	-1.4879e-07	2.0375e-07	5.4953e-08	-2.8837e-07	3.5331e-08	-2.5303e-07	-8.6515e-08	2.4339e-07	1.5688e-07	-2.9305e-07	1.1379e-07	-1.7925e-07	9.2626e-08	1.3017e-07	2.2279e-07	-4.7313e-08	2.0211e-09	-4.5292e-08	-1.4357e-07	6.8514e-08	-7.5059e-08	-3.2853e-07	2.4569e-08	-3.0396e-07	-2.3738e-08	1.1243e-07	8.8694e-08
